Time,Frequency
6.4e-05,61068.70229007634
0.000128,59701.49253731345
0.000195,59259.259259259255
0.00026199999999999997,57971.014492753624
0.00033,56737.588652482285
0.00039999999999999996,55555.55555555554
0.00047099999999999996,54794.520547945176
0.000544,54054.054054054046
0.000617,53333.33333333335
0.000692,52631.57894736842
0.000767,51948.05194805193
0.000844,51612.903225806425
0.000921,50955.41401273881
0.000999,50314.46540880501
0.0010780000000000002,49689.44099378885
0.0011580000000000002,49079.75460122701
0.001239,48484.84848484849
0.0013210000000000001,48192.77108433737
0.001404,47619.04761904763
0.001487,47058.82352941176
0.001572,46783.62573099417
0.001657,46242.77456647399
0.001743,45714.28571428571
0.00183,45197.74011299433
0.001918,44692.737430167625
0.002007,44198.89502762437
0.002097,43956.043956043985
0.002188,43715.84699453552
0.0022789999999999998,43243.24324324318
0.002371,43010.75268817195
0.002464,42780.74866310158
0.0025570000000000002,42553.19148936175
0.002651,42328.04232804234
0.002745,41884.81675392666
0.00284,41884.81675392666
0.0029360000000000002,41666.666666666686
0.0030310000000000003,41450.77720207253
0.003128,41450.77720207253
0.0032240000000000003,41025.64102564105
0.003321,40816.32653061225
0.003419,40609.137055837535
0.003517,40404.04040404035
0.0036160000000000003,40404.04040404035
0.0037150000000000004,40201.00502512555
0.0038140000000000005,40201.00502512555
0.003914000000000001,40201.00502512555
0.004013000000000001,39800.99502487549
0.004113000000000001,39800.99502487549
0.004214000000000002,39800.99502487549
0.004314000000000002,39603.96039603945
0.004415000000000002,39408.866995073884
0.004516000000000003,39215.686274509935
0.004618000000000002,39408.866995073884
0.004720000000000002,39408.866995073884
0.004821000000000002,39024.39024390254
0.004923000000000002,39024.39024390254
0.005026000000000002,39024.39024390254
0.0051280000000000015,38834.95145631076
0.005231000000000001,38834.95145631076
0.005334000000000001,38834.95145631076
0.005437000000000001,38647.342995169136
0.005540000000000001,38461.53846153849
0.005644000000000001,38647.342995169136
0.0057480000000000005,38461.53846153849
0.005851,38277.51196172249
0.005956,38461.53846153849
0.00606,38461.53846153849
0.006164,38461.53846153849
0.006268,38461.53846153849
0.006372,38461.53846153849
0.006476,38461.53846153849
0.00658,38277.51196172249
0.006684,38461.53846153849
0.006789,38834.95145631076
0.006892,38647.342995169136
0.073183,62992.12598425781
0.07324699999999999,62015.503875973685
0.07330999999999999,48192.7710843375
0.07337599999999998,36199.0950226246
0.07347599999999999,42328.042328043506
0.07359699999999998,58394.16058394236
0.07366499999999998,57142.857142856636
0.07373399999999998,56338.0281690128
0.07380499999999998,55555.55555555354
0.07387599999999998,55172.41379310108
0.07394899999999999,55172.41379310108
0.07402099999999999,54421.76870747995
0.074094,53691.27516778155
0.074168,53333.33333332934
0.074243,52980.13245032683
0.07431800000000001,52287.58169934628
0.07439400000000002,51948.05194805617
0.07447100000000001,51948.05194805617
0.074548,51612.90322581029
0.074625,50955.414012741945
0.07470299999999999,50632.91139240779
0.07478199999999999,50314.46540880741
0.07486099999999998,49689.44099379052
0.07494099999999998,49689.44099379052
0.07502199999999998,49689.44099379052
0.07510199999999997,49079.75460122805
0.07518299999999997,49079.75460122805
0.07526499999999997,48780.4878048788
0.07534599999999997,48192.7710843375
0.07542899999999997,48484.84848484893
0.07551199999999997,48192.7710843375
0.07559399999999997,47619.047619047196
0.07567799999999997,47619.047619047196
0.07576199999999997,47337.27810650818
0.07584599999999997,47058.8235294108
0.07593099999999997,46783.62573099293
0.07601599999999997,46242.77456647225
0.07610199999999998,46242.77456647225
0.07618899999999998,46242.77456647225
0.07627499999999998,45977.011494250895
0.07636199999999999,45714.2857142835
0.07644899999999999,45454.545454543004
0.076537,45454.545454543004
0.076625,44943.820224716204
0.076713,44943.820224716204
0.07680300000000001,44692.737430167945
0.07689100000000001,35242.29074890006
0.07698200000000001,35555.55555555508
0.077118,25236.593059935974
0.07720700000000001,18518.518518518442
0.07743500000000002,19417.475728155543
0.07763900000000001,26936.02693602643
0.07784700000000001,44692.73743016448
0.07793600000000002,35087.719298244694
0.07802600000000003,24999.999999999935
0.07816400000000003,24922.118380062162
0.07834600000000003,31496.062992125462
0.07848500000000003,31620.553359683392
0.07860000000000003,28880.866425992834
0.07873800000000003,31620.553359683392
0.07887700000000003,28776.97841726614
0.07899100000000003,26578.073089701375
0.07915500000000003,31496.062992125462
0.14469000000000004,60606.06060605097
0.14475600000000005,60606.06060605097
0.14482200000000006,59701.49253730319
0.14488800000000007,58823.529411753894
0.14495600000000008,58394.16058393053
0.1450240000000001,57553.95683453228
0.1450930000000001,57142.857142867964
0.1451630000000001,56338.02816902381
0.14523300000000008,55944.05594406515
0.14530500000000007,55944.05594406515
0.14537600000000006,55172.413793111635
0.14544800000000005,54794.52054795291
0.14552100000000004,54421.76870749022
0.14559400000000003,54054.05405406082
0.14566800000000002,53691.27516779155
0.145742,53333.33333333921
0.145817,52980.13245033657
0.145892,52631.57894737345
0.145968,52287.58169935102
0.14604399999999998,52287.58169935102
0.14612099999999997,51612.90322581029
0.14619699999999997,50955.414012741945
0.14627599999999996,50955.414012741945
0.14635399999999996,50632.91139240779
0.14643299999999995,50314.46540880741
0.14651199999999995,50000.00000000204
0.14659199999999994,50000.00000000204
0.14667199999999994,50000.00000000204
0.14675199999999994,49689.44099379052
0.14683199999999993,49382.71604938409
0.14691299999999993,48780.4878048788
0.14699399999999993,48780.4878048788
0.14707699999999993,48484.84848484893
0.14715799999999993,47904.19161676633
0.14724199999999993,48192.7710843375
0.14732499999999993,48192.7710843375
0.14740799999999993,47619.047619047196
0.14749099999999993,41666.66666666716
0.14757599999999993,42105.263157895686
0.14768299999999993,42105.263157895686
0.14776599999999993,37383.17757009486
0.14787299999999992,41450.777202072815
0.14797999999999992,47337.27810650818
0.14806599999999992,31249.99999999924
0.14814899999999992,30651.340996167266
0.14832199999999993,46242.77456647225
0.14840999999999993,20460.358056265857
0.20919999999999994,62015.50387596034
0.20926499999999995,61068.70229006702
0.20932899999999996,59701.49253730319
0.20939599999999997,59259.25925924873
0.20946299999999998,57553.95683453228
0.209531,57142.857142856636
0.20960199999999998,41237.113402061914
0.260161,62015.503875973685
0.260225,61068.70229007996
0.26028999999999997,59259.259259260914
0.260356,58394.16058394236
0.26042499999999996,58394.16058394236
0.260493,57142.857142867964
0.26056199999999996,56338.02816902381
0.26063299999999995,55944.055944054286
0.26070399999999994,55172.41379310108
0.26077599999999995,54421.76870747995
0.26084899999999994,53691.27516778155
0.26092299999999996,53691.27516778155
0.26099799999999995,53333.33333331947
0.26107199999999997,52287.58169934154
0.261148,46242.774566479675
0.261225,45977.011494250895
0.26132099999999997,51948.05194803744
0.261399,51948.05194803744
0.261475,50955.41401273294
0.26155300000000004,50000.00000000204
0.26163200000000003,44444.44444444111
0.26171300000000003,44692.737430157555
0.26181200000000004,30188.679245281284
0.26189200000000007,17857.1428571427
3.607237,32921.81069955931
3.607324,32653.061224483034
3.6074800000000002,39800.9950248523
3.6075690000000002,40201.0050250686
3.6076810000000004,45197.740112913714
3.6077680000000005,44198.89502762755
3.6078580000000007,44198.89502762755
3.6079490000000005,44692.73743012983
3.6080390000000007,39215.68627449193
3.6081280000000007,38834.95145632417
3.6082430000000008,44444.44444448224
3.6083340000000006,44198.89502762755
3.6084230000000006,43715.846994577994
3.6085150000000006,43956.04395612066
3.6086060000000004,43478.2608695742
3.6086970000000003,43478.2608695742
3.6087900000000004,43478.2608695742
3.6088810000000002,38647.342995156345
3.6089740000000003,38461.53846158212
3.6090880000000003,42780.74866311597
3.609182,43010.75268811619
3.6092750000000002,43243.24324321946
3.6093680000000004,43010.75268821888
3.6094600000000003,43010.75268821888
3.609554,43010.75268821888
3.609646,42553.19148944479
3.60974,42553.19148944479
3.6098339999999998,42780.74866311597
3.6099279999999996,42553.19148934427
3.6100209999999997,33613.445378156845
3.6101159999999997,30888.03088805627
3.6102589999999997,18823.52941176924
3.6103749999999994,17699.115044243128
3.6106839999999996,28169.01408448988
3.6108269999999996,34042.553191491505
3.6109679999999997,42105.26315791414
3.6110619999999995,41884.81675391525
3.6111579999999996,37037.03703703807
3.6112529999999996,37558.685446006086
3.6113739999999996,42553.19148934427
3.6114659999999996,41666.666666624995
3.6115619999999997,33472.803347266294
3.611658,30534.3511450141
3.611801,37209.302325529774
3.61192,37209.302325529774
3.612016,37209.302325529774
3.6121350000000003,33613.445378156845
3.6122310000000004,18604.651162803315
3.693563,60150.37593987734
3.693629,59259.259259163446
3.693696,58823.52941160984
3.6937640000000003,57971.01449267233
3.6938320000000004,57142.85714284531
3.6939020000000005,56737.58865241436
3.6939720000000005,55944.055944054286
3.6940430000000006,54794.52054795291
3.6941150000000005,53691.27516780155
3.6941890000000006,53333.33333345763
3.6942640000000004,53333.33333345763
3.6943390000000003,52631.57894739267
3.694414,51282.05128203649
3.694491,28673.835125456437
3.69457,28776.978417289123
3.69477,11444.921316165866
3.694848,11363.636363632168
3.695469,47337.27810648486
3.695552,47058.823529349334
3.695638,47058.823529349334
3.6957220000000004,46511.62790696025
3.6958080000000004,46242.774566420325
3.6958940000000005,46242.774566420325
3.6959810000000006,45977.01149428023
3.6960670000000007,45454.54545461469
3.6961550000000005,45454.54545461469
3.6962430000000004,45197.74011302711
3.6963310000000003,44943.820224716204
3.6964200000000003,44943.820224716204
3.6965090000000003,44692.73743012983
3.6965980000000003,44444.44444437258
3.6966880000000004,44444.44444437258
3.6967780000000006,44198.89502762755
3.6968680000000007,43956.04395612066
3.6969590000000006,43715.846994577994
3.6970500000000004,43715.846994577994
3.6971420000000004,43715.846994577994
3.697233,43478.2608695742
3.697325,43243.24324321946
3.697417,43243.24324321946
3.6975100000000003,43243.24324321946
3.6976020000000003,43010.75268811619
3.6976950000000004,42780.74866311597
3.6977880000000005,42780.74866311597
3.6978820000000003,42780.74866311597
3.6979750000000005,42553.19148944479
3.6980690000000003,42553.19148944479
3.698163,42553.19148944479
3.698257,42553.19148944479
3.6983509999999997,42553.19148944479
3.6984449999999995,42328.04232809324
3.6985389999999994,42105.26315791414
3.6986339999999993,41884.81675391525
3.6987289999999993,41884.81675391525
3.6988249999999994,42105.26315791414
3.6989199999999993,41884.81675391525
3.6990149999999993,41884.81675391525
3.6991109999999994,41884.81675391525
3.6992059999999993,41884.81675391525
3.6993019999999994,41884.81675391525
3.6993969999999994,41666.666666624995
3.6994929999999995,41666.666666624995
3.6995889999999996,41450.77720209666
3.6996849999999997,41450.77720209666
3.6997819999999995,41450.77720209666
3.6998779999999996,41450.77720209666
3.6999749999999993,41450.77720209666
3.7000709999999994,41237.11340215041
3.7001679999999992,41237.11340215041
3.700264999999999,41237.11340215041
3.700361999999999,41237.11340215041
3.7004589999999986,41237.11340215041
3.7005559999999984,41025.64102569927
3.700652999999998,41025.64102569927
3.700750999999998,41237.11340215041
3.700847999999998,41237.11340215041
3.7009449999999977,41237.11340215041
3.7010419999999975,41025.64102569927
3.7011389999999973,41025.64102569927
3.7012369999999972,41025.64102569927
3.701333999999997,41025.64102569927
3.701431999999997,41025.64102569927
3.7015289999999967,41025.64102569927
3.7016269999999967,41025.64102569927
3.7017239999999965,41025.64102569927
3.7018219999999964,41025.64102569927
3.701918999999996,40816.326530640785
3.702016999999996,41025.64102569927
3.702114999999996,40816.326530640785
3.702211999999996,40609.137055837
3.702310999999996,40816.326530640785
3.702408999999996,40816.326530640785
3.7025069999999958,41025.64102569927
3.7026049999999957,41237.11340215041
3.7027019999999955,41025.64102569927
3.7027989999999953,41025.64102569927
3.702896999999995,41450.77720209666
3.763259999999995,61068.7022900282
3.763325999999995,60606.060605949024
3.763390999999995,58823.529411801916
3.763457999999995,58394.160583918696
3.763526999999995,58394.160583918696
3.763594999999995,57142.85714284531
3.763663999999995,56338.02816889167
3.763734999999995,55944.055944054286
3.7638059999999953,55172.41379316444
3.763877999999995,54421.768707438845
3.763950999999995,54054.054053959444
3.7640249999999953,54054.054053959444
3.7640989999999954,53333.333333299735
3.7641729999999956,22598.870056513555
3.7642489999999955,8648.648648652197
3.765173999999995,15655.577299415116
3.765563999999995,39603.96039598911
3.765684999999995,48780.48780479624
3.7657659999999953,47619.047619062934
3.7658489999999953,47619.047619062934
3.7659339999999952,48192.77108430527
3.7660169999999953,48192.77108430527
3.7660999999999953,47904.191616694676
3.7661829999999954,47337.27810648486
3.7662669999999956,47058.82352947227
3.7663519999999955,47337.27810648486
3.7664369999999954,47337.27810648486
3.7665209999999956,47058.82352947227
3.7666059999999955,46783.62573101571
3.7666909999999953,46783.62573101571
3.7667769999999954,46783.62573101571
3.7668619999999953,46511.62790696025
3.7669479999999953,46242.774566420325
3.7670339999999953,45977.011494162885
3.7671209999999955,45977.011494162885
3.7672079999999957,46242.774566420325
3.767294999999996,46242.774566420325
3.767380999999996,45977.011494162885
3.767467999999996,45977.011494162885
3.767554999999996,45714.28571427625
3.7676419999999964,45454.54545461469
3.7677299999999962,45454.54545461469
3.767817999999996,45714.28571427625
3.767905999999996,45454.545454499996
3.767992999999996,45454.545454499996
3.768081999999996,45454.545454499996
3.7681689999999963,45197.74011302711
3.7682579999999963,45454.54545461469
3.768345999999996,45454.54545461469
3.768433999999996,45454.54545461469
3.768521999999996,45197.74011302711
3.768609999999996,44943.820224716204
3.768698999999996,45197.74011302711
3.768787999999996,45454.54545461469
3.7688759999999957,45197.74011302711
3.7689639999999955,45197.74011302711
3.7690529999999955,45197.74011302711
3.7691409999999954,45197.74011302711
3.7692299999999954,45197.74011302711
3.7693179999999953,44943.820224716204
3.7694069999999953,44943.820224716204
3.7694959999999953,45197.74011302711
3.7695849999999953,45197.74011302711
3.769672999999995,44943.820224716204
3.769761999999995,44943.820224716204
3.769850999999995,44692.73743012983
3.769939999999995,44692.73743012983
3.7700299999999953,44943.820224716204
3.7701189999999953,44943.820224716204
3.7702079999999953,44943.820224716204
3.7702969999999953,44943.820224716204
3.7703859999999954,23880.597014911382
3.8650969999999956,61068.7022900282
3.8651609999999956,60150.37593987734
3.8652279999999957,59701.49253727846
3.8652939999999956,58823.52941160984
3.8653619999999957,57971.01449267233
3.865429999999996,57553.956834578246
3.865499999999996,57142.85714284531
3.865568999999996,56338.02816889167
3.865639999999996,55944.055944054286
3.865710999999996,54794.52054795291
3.865782999999996,54054.054053959444
3.865856999999996,54054.054053959444
3.8659309999999962,53691.27516780155
3.8660049999999964,47337.27810660925
3.866079999999996,18735.36299766979
3.866173999999996,9039.548022600886
3.866506999999996,10825.439783493795
3.867058999999996,29629.629629630457
3.8672459999999957,43010.75268811619
3.867328999999996,43243.24324321946
3.867431999999996,48484.84848485709
3.867513999999996,47904.191616694676
3.867596999999996,47619.04761893706
3.867680999999996,47619.04761893706
3.8677649999999963,47337.27810648486
3.8678489999999965,46783.62573101571
3.8679339999999964,46783.62573101571
3.8680199999999965,46783.62573101571
3.8681049999999964,46511.62790696025
3.8681909999999964,46511.62790696025
3.8682769999999964,46242.774566420325
3.8683629999999964,45977.011494162885
3.8684499999999966,45714.28571427625
3.868536999999997,45977.01149428023
3.8686249999999966,45977.01149428023
3.8687109999999967,45454.54545461469
3.8687989999999965,45454.54545461469
3.8688869999999964,45454.54545461469
3.8689749999999963,44943.820224716204
3.869062999999996,44943.820224716204
3.8691529999999963,45197.74011302711
3.869240999999996,44943.820224716204
3.869329999999996,44943.820224716204
3.869418999999996,44943.820224716204
3.869507999999996,44692.73743012983
3.869596999999996,44444.44444437258
3.8696869999999963,44444.44444437258
3.8697769999999965,44444.44444437258
3.8698669999999966,44444.44444437258
3.8699569999999968,44444.44444437258
3.870046999999997,44198.89502762755
3.870136999999997,44198.89502762755
3.870227999999997,44444.44444437258
3.870317999999997,44198.89502762755
3.870407999999997,44198.89502762755
3.870498999999997,44198.89502762755
3.870588999999997,43956.04395612066
3.870679999999997,43956.04395612066
3.870770999999997,43956.04395612066
3.8708619999999967,43956.04395612066
3.8709529999999965,43956.04395612066
3.8710439999999964,43715.846994577994
3.871134999999996,43478.2608695742
3.871226999999996,43478.2608695742
3.871318999999996,43478.2608695742
3.871410999999996,43243.24324321946
3.871502999999996,43243.24324321946
3.8715959999999963,43243.24324321946
3.8716879999999962,42780.74866311597
3.8717809999999964,42780.74866311597
3.871874999999996,38095.238095230205
3.8719679999999963,38461.53846158212
3.8720849999999962,28985.507246382804
3.952076999999996,55944.055944054286
3.952154999999996,61068.7022900282
3.952219999999996,61068.7022900282
3.952285999999996,60606.060605949024
3.952350999999996,59259.259259163446
3.952417999999996,59259.259259163446
3.9524859999999964,58823.529411801916
3.9525529999999964,57971.01449285888
3.9526219999999963,57553.956834578246
3.952690999999996,56737.58865241436
3.952760999999996,56338.02816889167
3.9528319999999963,55944.055944054286
3.9529029999999965,55172.41379316444
3.9529749999999964,54794.52054795291
3.9530479999999963,54421.768707438845
3.9531209999999963,54054.054053959444
3.9531949999999965,53691.27516780155
3.9532689999999966,53333.33333345763
3.9533439999999964,52631.57894739267
3.9534189999999962,52631.57894739267
3.9534959999999963,46511.62790708034
3.954783999999996,42105.26315781572
3.9548679999999963,42553.19148934427
3.9549739999999964,48192.77108430527
3.9550559999999964,47337.27810648486
3.9551399999999965,46783.62573101571
3.9552249999999964,46783.62573101571
3.9553109999999965,47058.82352947227
3.9553959999999964,46783.62573101571
3.9554809999999962,46511.62790696025
3.9555669999999963,46242.774566420325
3.9556529999999963,45977.011494162885
3.9557399999999965,45977.011494162885
3.9558269999999967,45977.011494162885
3.955913999999997,45714.28571427625
3.956000999999997,45454.54545461469
3.956088999999997,45197.74011302711
3.9561769999999967,45197.74011302711
3.9562659999999967,44943.820224716204
3.9563539999999966,44943.820224716204
3.9564439999999967,45197.74011302711
3.9565319999999966,44692.73743012983
3.9566209999999966,44692.73743012983
3.9567109999999968,44444.44444448224
3.9567999999999968,44444.44444448224
3.9568909999999966,44444.44444448224
3.9569799999999966,44444.44444448224
3.9570709999999965,44444.44444448224
3.9571599999999965,44198.89502762755
3.9572509999999963,39603.96039598911
4.027274999999997,53691.275167961576
4.027356999999997,59701.492537674174
