Time,Frequency
7.7e-05,49079.754601227
0.000158,48780.48780487806
0.00023999999999999998,48192.77108433736
0.00032199999999999997,47619.04761904761
0.00040599999999999995,47058.82352941175
0.00049,46511.627906976726
0.000576,46511.627906976726
0.000662,45977.011494252874
0.0007480000000000001,45454.54545454547
0.000836,45454.54545454544
0.000924,44943.82022471908
0.001012,44444.44444444444
0.0011020000000000001,44198.89502762432
0.0011920000000000001,43956.043956043985
0.001283,43715.84699453552
0.001374,43478.26086956519
0.001466,43010.75268817205
0.0015580000000000001,42553.19148936175
0.001652,42553.19148936175
0.001746,42328.04232804234
0.0018399999999999998,42105.26315789477
0.0019349999999999999,41884.81675392671
0.0020299999999999997,41666.66666666659
0.002126,41450.77720207253
0.002222,41237.113402061914
0.002319,41025.64102564105
0.0024159999999999997,40816.32653061225
0.0025139999999999997,40609.137055837535
0.0026119999999999997,40404.04040404035
0.002711,39999.999999999985
0.00281,39800.995024875665
0.002911,40000.000000000065
0.003011,39800.995024875665
0.0031109999999999996,39603.96039603962
0.0032119999999999996,39215.68627450985
0.0033129999999999995,39024.39024390246
0.0034159999999999993,39024.39024390246
0.0035179999999999994,38834.95145631076
0.0036209999999999992,38834.95145631076
0.003723999999999999,38834.95145631076
0.003826999999999999,38461.53846153849
0.003929999999999999,38095.23809523808
0.004034999999999999,38277.51196172249
0.004139999999999999,38277.51196172249
0.004243999999999999,38095.23809523808
0.004348999999999999,38095.23809523808
0.004453999999999999,37735.84905660371
0.004558999999999999,37558.6854460093
0.004665999999999999,37735.84905660371
0.004771999999999999,37735.84905660371
0.0048779999999999995,37383.177570093496
0.004984,37037.037037037175
0.005091999999999999,37383.177570093496
0.005199999999999999,37383.177570093496
0.005305999999999999,37037.037037037175
0.005413999999999999,37209.30232558141
0.005521999999999998,37209.30232558141
0.005628999999999999,36866.359447004725
0.005736999999999998,36697.24770642211
0.005845999999999998,36866.359447004725
0.005954999999999998,36697.24770642211
0.006062999999999997,36529.680365296874
0.006172999999999997,36697.24770642211
0.006281999999999997,36697.24770642211
0.0063909999999999965,36529.680365296874
0.006499999999999996,36199.09502262446
0.006609999999999996,36363.63636363641
0.006720999999999996,36363.63636363641
0.006829999999999996,36036.03603603604
0.006940999999999996,36363.63636363641
0.007051999999999996,36363.63636363641
0.0071609999999999955,36036.03603603604
0.0072719999999999955,35874.43946188339
0.0073829999999999955,36036.03603603604
0.007494999999999996,36036.03603603604
0.0076049999999999954,35874.43946188325
0.0077169999999999956,36036.0360360359
0.007827999999999996,36036.03603603604
0.007938999999999996,36036.03603603604
0.008049999999999996,35874.43946188353
0.008160999999999996,35714.28571428595
0.008272999999999996,35714.28571428595
0.008384999999999995,35714.28571428595
0.008496999999999994,35714.28571428595
0.008608999999999993,35714.28571428595
0.008720999999999993,35874.43946188353
0.008832999999999992,35874.43946188353
0.008943999999999992,35874.43946188353
0.009055999999999991,35874.43946188353
0.009166999999999991,35555.555555555635
0.00927899999999999,35714.285714285674
0.00939199999999999,35714.285714285674
0.00950299999999999,35242.29074889871
0.009615999999999991,15655.577299412937
0.05968099999999997,8230.452674897115
0.12318799999999996,10025.06265664169
0.12553199999999995,8024.072216649967
0.12798799999999994,8537.886872998994
0.15368199999999996,8403.361344537985
0.16046499999999994,10723.86058981238
0.17407399999999995,9356.725146198889
0.19514799999999993,9039.548022598901
0.21770399999999995,10914.051841746079
0.21920999999999996,16842.10526315778
0.21950499999999995,18140.58956915998
0.21968499999999996,22535.211267604238
0.21994599999999997,34334.763948496235
0.22003999999999999,21390.374331550047
0.22017899999999999,20779.22077921947
0.220414,32258.064516129263
0.220564,41237.113402061914
0.220662,41025.64102564087
0.220758,40816.326530611885
0.220857,41450.77720206685
0.220954,40816.326530611885
0.22105000000000002,40609.137055837
0.22115,40201.00502512467
0.22124700000000003,39800.99502487978
0.22134900000000002,40201.00502513028
0.221448,39603.96039604353
0.221548,39215.68627451327
0.22164999999999999,39603.96039604353
0.22175199999999998,39603.96039604353
0.22185199999999997,39603.96039604353
0.22195399999999996,39408.86699507759
0.22205399999999995,38834.9514563137
0.22215699999999994,39024.390243905684
0.22225999999999993,39024.390243905684
0.22236199999999992,38834.9514563137
0.2224649999999999,38834.9514563137
0.2225679999999999,38095.238095240275
0.2226709999999999,38095.238095240275
0.2227779999999999,39024.390243905684
0.22288099999999988,38647.342995171886
0.22298299999999988,37735.849056605555
0.22308799999999987,37914.69194312995
0.22319499999999987,38277.51196172487
0.22329899999999986,38277.51196172487
0.22340399999999985,38095.238095240275
0.22350799999999985,37735.849056605555
0.22361399999999984,37735.849056605555
0.22371999999999984,37558.68544601098
0.22382599999999983,37914.69194312995
0.22393299999999983,37558.68544601098
0.22403699999999982,37383.17757009486
0.22414599999999982,37735.849056605555
0.2242509999999998,37558.68544601098
0.2243579999999998,37383.17757009486
0.2244639999999998,37558.68544601098
0.2245719999999998,37209.30232558261
0.2246769999999998,37383.17757009486
0.2247869999999998,37914.69194312995
0.22489099999999979,32786.88524590241
0.22499799999999978,32258.064516129263
0.22513499999999978,37383.17757009486
0.22524599999999978,37558.68544601098
0.22534899999999977,32921.8106995894
0.22545899999999977,32921.8106995894
0.22559199999999976,37383.17757009486
0.22570199999999976,37383.17757009486
0.22580599999999976,36697.2477064227
0.22591599999999976,32786.88524590241
0.22602399999999975,29629.629629630457
0.22615999999999975,26058.63192182396
0.22629399999999975,20671.83462532308
0.22646699999999975,9900.990099009863
0.31923899999999966,8456.659619450296
0.31982399999999966,9184.845005740415
0.3530079999999996,8658.00865800832
0.40924999999999967,8138.351983723659
0.43183699999999964,8230.452674896878
0.4517169999999997,8273.009307135508
0.4522539999999997,11065.006915629725
0.4526839999999997,12678.288431061954
0.4529769999999997,9744.214372716007
0.4533149999999997,9269.988412514456
0.4537979999999997,12030.075187970446
0.4541779999999997,11713.030746705896
0.4544629999999997,10403.120936280618
0.4548609999999997,12269.938650307013
0.4552319999999997,15655.577299413415
0.45551299999999967,16563.146997929223
0.4557429999999997,8849.557522123738
0.4566469999999997,12345.679012346023
0.4569999999999997,10389.610389610485
0.4572949999999997,9756.097560975759
0.4577699999999997,13913.04347826106
0.45811499999999966,15355.086372361031
0.45834499999999967,11299.435028248805
0.45863599999999966,10767.160161507494
0.45905299999999966,11661.807580174589
0.45937899999999965,13864.818024262237
0.4597389999999997,14084.5070422532
0.4614029999999997,11428.57142857178
0.4651509999999996,8592.910848549807
0.4656409999999996,8385.744234800748
0.4766339999999996,9195.402298850766
0.5851869999999992,8412.197686646306
0.5856989999999992,8752.735229759583
0.5861379999999992,8456.659619450296
0.5925249999999993,8307.372793353696
0.6399679999999993,8465.608465608702
0.6437399999999993,8097.165991902925
0.7582179999999995,9535.160905839897
0.7587639999999995,10309.278350515478
0.9689559999999995,8154.943934760368
0.9874059999999996,8238.928939238373
1.0603359999999995,8998.875140606011
1.2163799999999996,10709.504685407537
1.2167149999999995,9111.61731207127
1.2201229999999996,10416.666666665284
1.2204839999999997,12176.560121763197
1.2245419999999998,8879.023307435782
1.2422909999999994,8620.689655172044
1.3901019999999988,9433.962264151389
1.4576599999999988,8324.661810614034
1.4582239999999989,9626.955475330624
1.460209999999999,10088.272383353795
1.4814689999999993,8097.165991902925
1.6223109999999987,10139.416983524365
1.9091689999999988,8928.57142857135
1.9096099999999987,8658.008658007282
2.170927999999997,9060.022650056962
2.173599999999997,9987.51560549249
2.180185999999997,11834.31952662899
2.6512439999999957,8394.543546694811
3.027901999999997,8879.02330743797
3.2772419999999958,8447.729672650197
4.047813999999995,8611.410118405223
4.051489999999996,8849.557522121564
4.055832999999995,8483.56309649729
4.348967999999999,9227.220299880453
4.637904999999992,8483.56309649729
4.638377999999992,9080.590238368713
4.737104999999991,10709.504685413904
4.799381999999986,11004.126547463196
4.8058069999999855,11126.564673155055
4.806163999999986,9501.187648460962
4.806525999999986,9029.34537246561
4.812092999999986,11730.205278587327
4.813972999999986,9546.539379476144
4.814405999999986,8000.000000004434
4.844887999999986,8879.02330743797
4.873668999999985,8676.789587851654
4.932546999999989,8465.60846561069
4.96146099999999,9661.835748789086
5.043834999999991,12139.60546282719
5.436522999999991,8474.576271189926
5.437066999999991,9673.518742441005
5.437466999999991,8447.729672650197
5.679091999999991,8307.372793357526
5.72173399999999,8105.369807495059
5.73229999999999,8465.60846561069
6.038443999999991,8648.648648652197
6.038995999999991,10610.079575601048
6.039368999999991,9768.009768010923
6.039749999999991,9060.022650056962
6.8759659999999885,9768.009768010923
6.953411999999989,8205.12820513238
6.982080999999987,9345.794392526139
6.982382999999986,8016.0320641278195
6.982936999999986,9626.955475333196
6.989137999999986,8658.008658005201
6.989595999999986,8024.072216650637
7.0074519999999865,14732.965009197134
7.250029999999986,9673.518742441005
7.9925839999999875,11994.002998501232
7.992943999999987,12820.512820509122
8.131737999999986,8281.573498964612
8.879165999999984,8556.14973261913
