Time,Frequency
7.2e-05,52631.57894736842
0.000147,51282.05128205128
0.000224,49999.99999999999
0.000303,49079.754601226996
0.000384,48484.84848484849
0.000466,48192.77108433736
0.000549,47904.19161676648
0.000632,47337.27810650888
0.000716,46783.62573099414
0.000801,46242.77456647396
0.000887,45454.54545454541
0.000974,44943.82022471905
0.0010630000000000001,44692.737430167566
0.0011520000000000002,44198.89502762432
0.0012420000000000003,43715.84699453552
0.0013330000000000002,43478.26086956519
0.0014250000000000003,43010.75268817205
0.0015170000000000003,42328.04232804234
0.0016110000000000002,42105.263157894726
0.0017060000000000003,42105.263157894726
0.0018010000000000003,41666.66666666664
0.0018960000000000003,41237.11340206187
0.0019930000000000004,41025.64102564105
0.0020900000000000003,40609.137055837535
0.0021880000000000003,40404.04040404035
0.0022870000000000004,40404.04040404035
0.0023860000000000005,40201.00502512564
0.0024850000000000007,39800.995024875665
0.0025850000000000005,39603.96039603962
0.0026860000000000005,39603.96039603962
0.0027870000000000004,39408.866995073884
0.0028880000000000004,39215.68627450977
0.0029900000000000005,39024.39024390246
0.0030920000000000006,38834.95145631076
0.0031950000000000004,38647.342995169136
0.003298,38461.53846153849
0.003402,38461.53846153849
0.003506,38461.53846153849
0.00361,38277.51196172249
0.003714,37914.691943128
0.003819,37914.691943128
0.003925,37914.69194312792
0.00403,37735.84905660371
0.004136,37558.6854460093
0.004242,37558.6854460093
0.0043490000000000004,37558.6854460093
0.004455000000000001,37383.17757009334
0.004562000000000001,37383.17757009334
0.004669000000000001,37209.30232558141
0.004776000000000002,37209.30232558141
0.004884000000000001,37209.30232558141
0.0049910000000000015,37037.037037037175
0.005099000000000001,37037.037037037175
0.005207000000000001,36866.359447004725
0.005315,36697.24770642211
0.005424,36697.24770642211
0.005533,36866.359447004725
0.0056419999999999994,36697.24770642211
0.005749999999999999,36529.680365296874
0.005859999999999999,36529.680365296874
0.005968999999999999,36529.680365296874
0.0060789999999999985,36529.680365296874
0.006187999999999998,36363.63636363641
0.006297999999999998,36199.09502262446
0.006407999999999998,36199.09502262446
0.006518999999999998,36363.63636363641
0.006628999999999998,36199.09502262446
0.006738999999999998,36036.03603603604
0.006849999999999998,36036.03603603604
0.006960999999999998,36036.03603603604
0.0070719999999999976,36036.03603603604
0.0071829999999999975,35874.43946188339
0.0072939999999999975,35874.43946188339
0.007405999999999998,35874.43946188339
0.007516999999999998,35874.43946188339
0.007628999999999998,35874.43946188339
0.007739999999999998,35714.28571428581
0.007851999999999998,35714.28571428595
0.007963999999999997,35714.28571428595
0.008075999999999996,35714.28571428595
0.008187999999999996,35555.555555555635
0.008299999999999995,35555.555555555635
0.008412999999999995,35555.555555555635
0.008524999999999994,35242.29074889871
0.008637999999999995,35242.29074889871
0.008751999999999994,35242.29074889871
0.008864999999999994,34934.49781659388
0.008978999999999994,34482.75862068946
0.009093999999999994,33195.02074688774
0.11049099999999999,44198.89502762416
0.11059799999999999,52980.1324503317
0.11067199999999999,51612.90322581029
0.11074899999999999,50632.91139240779
0.11082699999999998,49689.44099379052
0.11090699999999998,48780.4878048788
0.11098799999999998,47904.19161676633
0.11107099999999998,47058.8235294108
0.11115499999999998,45977.011494250895
0.11124099999999998,45454.545454543004
0.11132899999999998,44692.737430167945
0.11141699999999999,44198.89502762416
0.11150799999999998,43715.8469945349
0.11159799999999999,43243.24324324541
0.11169099999999998,43010.752688173954
0.11178299999999998,42328.042328043506
0.11187699999999998,41884.81675392742
0.11197199999999997,41666.66666666716
0.11206799999999997,41237.113402061914
0.11216399999999997,40816.326530611885
0.11226199999999997,40609.137055837
0.11235999999999997,40201.00502512467
0.11245899999999998,40201.00502512467
0.11255899999999998,39999.99999999886
0.11265799999999998,39408.866995072196
0.11275899999999998,39024.390243900394
0.11286099999999999,39215.686274507934
0.112964,39024.390243900394
0.113065,38647.342995166706
0.113169,38461.53846153849
0.11327200000000001,38277.51196172233
0.113377,38277.51196172233
0.11348100000000001,37914.69194312995
0.113586,37558.68544601098
0.113692,37209.30232558261
0.113799,37209.30232558261
0.113907,37383.17757009486
0.11401399999999999,37209.30232558261
0.11412099999999999,37209.30232558261
0.11422899999999998,37209.30232558261
0.11433599999999998,36866.35944700546
0.11444399999999998,36529.68036529731
0.11455299999999997,36697.2477064227
0.11466299999999997,36866.35944700546
0.11477099999999997,36529.68036529731
0.11487999999999997,36363.636363636695
0.11498999999999997,36363.636363636695
0.11509999999999997,36199.0950226246
0.11520999999999997,36199.0950226246
0.11532099999999997,36199.0950226246
0.11543099999999996,36036.03603603604
0.11554199999999996,35714.2857142854
0.11565299999999996,35714.2857142854
0.11576599999999997,35874.43946188325
0.11587699999999997,35874.43946188325
0.11598899999999997,35714.2857142854
0.11609999999999997,35398.23008849495
0.11621299999999997,35555.55555555508
0.11632599999999997,35398.23008849495
0.11643799999999997,35242.2907488979
0.11655199999999998,35242.2907488979
0.11666499999999998,35242.2907488979
0.11677899999999998,35242.2907488979
0.11689199999999998,35087.719298244694
0.11700599999999999,35087.719298244694
0.11711999999999999,35087.719298244694
0.11723399999999999,35087.719298244694
0.117348,34934.49781659282
0.117462,34934.49781659282
0.117577,34782.60869565097
0.117691,34632.03463203328
0.11780700000000001,34782.60869565097
0.11792200000000001,34782.60869565097
0.11803700000000002,34782.60869565097
0.11815200000000002,34782.60869565097
0.11826700000000002,34482.758620688175
0.11838200000000003,34482.758620688175
0.11849900000000003,34632.03463203328
0.11861400000000004,34632.03463203328
0.11873000000000004,34632.03463203328
0.11884500000000005,34334.763948496235
0.11896100000000005,34334.763948496235
0.11907800000000006,34632.03463203328
0.11919400000000006,34334.76394849828
0.11930900000000007,34482.758620690234
0.11942700000000006,34782.60869565097
0.11954100000000006,34188.034188034464
0.11965700000000007,34042.55319148949
0.11977500000000006,34042.55319148949
0.11989200000000007,33472.80334728184
0.12001000000000006,33057.85123967048
0.31479500000000005,49382.71604938409
0.31487300000000007,47619.047619062934
0.31495700000000004,47058.82352942617
0.315041,46242.774566479675
0.315127,45714.28571429075
0.315214,44943.82022473022
0.31530199999999997,44198.89502762755
0.31539199999999995,43715.84699453821
0.31548299999999996,43243.24324324541
0.31557499999999994,42780.748663103266
0.31566799999999995,42553.191489369405
0.31576199999999993,42105.263157901834
0.3158559999999999,41884.81675392742
0.3159519999999999,41666.666666661135
0.3160469999999999,41237.11340205601
0.3161439999999999,41025.64102564087
0.31624099999999994,40609.137055837
0.3163389999999999,40201.00502512467
0.31643799999999994,40000.0000000044
0.31653799999999993,39800.99502487429
0.3166379999999999,39408.866995072196
0.31673899999999994,39408.866995072196
0.31684099999999993,39215.6862745026
0.31694199999999995,38834.951456303235
0.31704499999999997,38647.342995166706
0.317148,38461.53846154106
0.317252,38461.53846154106
0.31735599999999997,38095.238095240275
0.31745999999999996,37914.691943124955
0.31756599999999996,37914.691943124955
0.317671,37558.685446006086
0.317777,37558.685446006086
0.317884,37558.685446006086
0.31799,37383.177570085165
0.318097,37209.30232557781
0.31820400000000004,37209.30232557781
0.31831200000000004,37209.30232557781
0.31841900000000006,37037.03703703807
0.31852700000000006,37037.03703703807
0.31863500000000006,37037.03703703807
0.31874300000000005,36866.359447000745
0.31885100000000005,36866.359447000745
0.3189600000000001,36866.359447000745
0.3190680000000001,36697.24770641335
0.3191770000000001,36529.680365292676
0.3192860000000001,36529.680365292676
0.3193960000000001,36529.680365292676
0.31950500000000015,36529.680365292676
0.31961500000000015,36529.680365292676
0.3197240000000002,36363.636363636695
0.3198340000000002,36199.09502262006
0.3199440000000002,36199.09502262006
0.3200550000000002,36363.636363636695
0.3201650000000002,36199.09502262006
0.3202750000000002,36036.03603602703
0.3203860000000002,36199.09502262006
0.32049700000000025,36036.03603603604
0.32060700000000025,35874.439461878785
0.32071900000000025,36036.03603602703
0.3208300000000003,35874.439461878785
0.3209410000000003,35714.2857142854
0.3210530000000003,35714.2857142854
0.3211650000000003,35714.2857142854
0.3212770000000003,35555.55555555947
0.3213890000000003,35714.2857142854
0.3215020000000003,35714.2857142854
0.3216130000000003,35398.230088503646
0.3217260000000003,35398.230088503646
0.32183900000000026,35555.55555555947
0.32195200000000024,35555.55555555947
0.32206400000000024,35398.230088503646
0.3221770000000002,35398.230088503646
0.3222900000000002,35398.230088503646
0.32240300000000016,35242.29074890222
0.32251600000000014,35242.29074890222
0.32263000000000014,35398.230088503646
0.3227430000000001,35398.230088503646
0.3228560000000001,35398.230088503646
0.32296900000000006,35242.29074890222
0.32308200000000004,35242.29074890222
0.32319600000000004,35242.29074890222
0.323309,35242.29074890222
0.323423,35087.719298253236
0.323536,34934.49781659705
0.32365099999999997,35087.719298244694
0.32376499999999997,34934.49781659705
0.323879,34482.758620696426
0.32399399999999995,34042.553191491505
0.3241109999999999,29850.74626865778
0.4308369999999999,48780.4878048788
0.4309179999999999,47058.8235294108
0.4310009999999999,45714.28571429075
0.4310879999999999,44943.82022473022
0.4311759999999999,43956.043956053625
0.43126599999999987,43478.2608695742
0.43135799999999985,43243.24324324541
0.43144999999999983,42553.19148935684
0.43154299999999984,42105.26315788953
0.43163799999999986,41450.777202072815
0.43173299999999987,40816.32653061766
0.43183099999999985,41025.64102564087
0.43192899999999984,40609.137055837
0.43202599999999985,40000.0000000044
0.43212599999999984,39800.99502487429
0.43222599999999983,39800.99502487429
0.43232699999999985,39024.390243900394
0.43242699999999984,38647.342995166706
0.43253199999999986,38834.9514563137
0.43263399999999985,38095.238095240275
0.43273799999999985,30651.340996167266
0.43392399999999987,29629.629629630457
0.43408399999999986,36199.09502262006
0.43419399999999986,36363.63636362752
0.4343049999999999,35874.439461878785
0.4344139999999999,35714.2857142854
0.4345279999999999,36363.636363636695
0.4346379999999999,36363.636363636695
0.4347479999999999,36036.03603603604
0.4348579999999999,35714.2857142854
0.4349699999999999,35714.2857142854
0.4350819999999999,35555.55555555947
0.4351939999999999,35555.55555555947
0.4353069999999999,35555.55555555947
0.4354189999999999,35714.2857142854
0.43553199999999986,35555.5555555507
0.4356429999999999,35398.23008849495
0.4357569999999999,35398.23008849495
0.4358689999999999,35087.719298244694
0.4359829999999999,34934.49781659705
0.4360969999999999,35087.719298253236
0.4362119999999999,35242.29074890222
0.43632499999999985,34782.60869565097
0.43643899999999985,34782.60869565097
0.43655499999999986,34934.49781659705
0.43666899999999986,34934.49781659705
0.43678399999999984,34782.60869565097
0.43689799999999984,34632.034632037445
0.43701399999999985,34782.608695659364
0.4371289999999998,34632.034632037445
0.4372439999999998,34482.758620688175
0.4373599999999998,34632.034632037445
0.4374759999999998,34482.758620696426
0.4375909999999998,34482.758620696426
0.43770799999999976,34482.758620696426
0.43782299999999974,34334.763948500324
0.4379399999999997,34334.763948500324
0.4380559999999997,34188.03418804055
0.4381729999999997,34334.763948500324
0.4382899999999997,34334.763948500324
0.4384059999999997,34188.03418804055
0.43852299999999966,33898.30508475173
0.43863999999999964,33898.30508475173
0.4387589999999996,34188.03418804055
0.4388759999999996,34334.763948500324
0.4389929999999996,34042.553191491505
0.4391089999999996,33755.2742616052
0.43922799999999956,33898.305084743755
0.43934599999999957,33898.305084743755
0.4394639999999996,33898.305084743755
0.4395819999999996,33755.2742616052
0.4396999999999996,33898.30508475173
0.43981899999999957,33755.2742616052
0.43993599999999955,33755.2742616052
0.44005599999999956,34042.553191491505
0.44017299999999954,34042.553191491505
0.44029099999999954,33755.2742616052
0.4404079999999995,29962.54681647747
0.44052799999999953,14109.34744268117
0.6396599999999996,46783.62573098533
0.6397449999999996,45714.28571427625
0.6398309999999996,44692.737430157555
0.6399199999999996,44198.89502762755
0.6400099999999996,43478.2608695742
0.6401009999999996,43010.75268816754
0.6401939999999996,42553.191489369405
0.6402869999999996,42105.26315791414
0.6403819999999996,41666.66666667318
0.6404769999999995,41237.11340205601
0.6405739999999995,40816.32653061766
0.6406709999999995,40404.040404056635
0.6407699999999995,40404.040404056635
0.6408689999999995,40000.0000000044
0.6409679999999994,39603.96039603265
0.6410689999999994,39603.96039603265
0.6411699999999995,39408.86699506142
0.6412709999999995,39024.390243900394
0.6413729999999995,38834.95145632417
0.6414759999999995,38647.34299517707
0.6415789999999995,38461.53846154106
0.6416829999999994,38277.51196171979
0.6417869999999994,38095.238095230205
0.6418919999999995,37914.69194311498
0.6419969999999995,37735.849056585794
0.6421029999999995,37735.849056585794
0.6422089999999996,37558.685446006086
0.6423149999999996,37383.177570104555
0.6424219999999996,37383.177570104555
0.6425289999999996,37209.302325587414
0.6426359999999995,37209.302325587414
0.6427439999999995,37037.03703703807
0.6428509999999995,36866.359447000745
0.6429599999999995,36866.359447000745
0.6430679999999995,36697.24770641335
0.6431769999999996,36697.24770641335
0.6432859999999996,36529.68036528342
0.6433949999999996,36529.68036528342
0.6435049999999997,36529.68036528342
0.6436139999999997,36363.636363618345
0.6437239999999997,36199.09502262006
0.6438339999999998,36199.09502262006
0.6439449999999998,36199.09502262006
0.6440549999999998,36036.03603604505
0.6441659999999998,36036.03603604505
0.6442769999999998,36036.03603604505
0.6443879999999997,36036.03603604505
0.6444989999999997,35874.43946188772
0.6446099999999997,35714.2857142854
0.6447219999999997,35874.43946188772
0.6448339999999997,35714.2857142854
0.6449449999999997,35555.5555555507
0.6450579999999997,35714.2857142854
0.6451699999999997,35555.5555555507
0.6452819999999997,35555.5555555507
0.6453949999999997,35555.5555555507
0.6455069999999997,35555.5555555507
0.6456199999999997,35555.5555555507
0.6457319999999998,35398.230088486256
0.6458449999999998,35398.230088486256
0.6459579999999998,35242.29074890222
0.6460709999999998,35242.29074890222
0.6461849999999998,35242.29074890222
0.6462979999999998,35087.71929826178
0.6464119999999998,35087.71929826178
0.6465259999999997,35242.29074890222
0.6466399999999997,35087.719298244694
0.6467529999999997,34934.49781660552
0.6468679999999997,35087.71929826178
0.6469819999999996,34934.49781660552
0.6470959999999996,34934.49781660552
0.6472109999999995,34934.49781660552
0.6473249999999995,34782.608695659364
0.6474399999999995,34782.608695659364
0.6475549999999994,34782.608695659364
0.6476699999999994,34782.608695659364
0.6477849999999994,34782.608695659364
0.6478999999999994,34632.034632037445
0.6480149999999993,34632.034632037445
0.6481309999999993,34632.034632037445
0.6482459999999993,34482.758620688175
0.6483619999999993,34632.034632037445
0.6484779999999993,34632.034632037445
0.6485929999999993,34482.758620688175
0.6487089999999993,34482.758620688175
0.6488249999999993,34632.034632037445
0.6489409999999993,34632.034632037445
0.6490559999999993,34334.763948492146
0.6491719999999993,34334.763948492146
0.6492889999999993,34482.758620688175
0.6494049999999993,34334.763948492146
0.6495209999999993,34188.03418802433
0.6496379999999994,34334.763948492146
0.6497549999999994,34188.03418804055
0.6498709999999994,33755.2742616131
0.6499889999999994,33333.33333333084
0.6501079999999994,28571.428571422653
0.6502289999999994,9433.962264150154
0.8600989999999994,45197.74011299876
0.8601869999999994,44444.44444445482
0.8602759999999994,43956.04395606703
0.8603669999999993,43010.75268819321
0.8604579999999993,42328.042328043506
0.8605529999999992,42105.26315788953
0.8606469999999993,41666.66666667318
0.8607429999999993,41237.11340205601
0.8608389999999992,40609.137055837
0.8609369999999993,40201.005025135884
0.8610359999999992,39800.99502487429
0.8611359999999992,39408.86699506142
0.8612369999999993,39408.86699506142
0.8613389999999993,39215.68627451327
0.8614399999999993,38647.34299517707
0.8615429999999993,38095.238095230205
0.8616469999999993,38461.538461520526
0.8617529999999993,38461.538461520526
0.8618549999999994,38095.238095230205
0.8619609999999994,37735.849056605555
0.8620649999999994,37209.302325587414
0.8621729999999994,37037.03703703807
0.8622799999999994,37037.03703703807
0.8623889999999994,37383.177570104555
0.8624959999999994,37037.03703703807
0.8626029999999993,37037.03703703807
0.8627119999999994,36697.24770643204
0.8628189999999993,36529.68036530194
0.8629299999999993,36529.68036530194
0.8630379999999993,35874.43946188772
0.8631489999999993,36036.03603602703
0.8632609999999993,36036.03603602703
0.8633709999999993,35555.5555555507
0.8634829999999993,35555.5555555507
0.8635959999999994,36036.03603602703
0.8637079999999994,36036.03603602703
0.8638179999999994,35555.5555555507
0.8639299999999994,35555.5555555507
0.8640429999999995,35555.5555555507
0.8641549999999995,35242.29074890222
0.8642679999999995,35087.71929826178
0.8643819999999994,35087.71929826178
0.8644959999999994,35242.29074890222
0.8646099999999993,34934.49781658859
0.8647229999999994,34782.608695659364
0.8648389999999994,34934.49781660552
0.8649529999999993,34934.49781660552
0.8650679999999993,34934.49781660552
0.8651819999999992,34782.608695659364
0.8652969999999992,34632.034632037445
0.8654119999999992,34482.758620688175
0.8655279999999992,34482.758620688175
0.8656439999999992,34632.034632037445
0.8657599999999992,34632.034632037445
0.8658749999999992,34334.763948492146
0.8659909999999992,34334.763948492146
0.8661079999999992,34334.763948492146
0.8662239999999992,34334.763948492146
0.8663409999999993,34188.03418804055
0.8664569999999993,34042.553191491505
0.8665749999999992,34042.553191491505
0.8666919999999992,34188.03418804055
0.8668099999999992,34188.03418804055
0.8669259999999992,33898.305084759704
0.8670439999999991,33898.305084759704
0.8671619999999991,33755.2742616131
0.867279999999999,33755.2742616131
0.867398999999999,33898.305084759704
0.867516999999999,33755.2742616131
0.8676349999999989,33613.445378156845
0.8677539999999989,33755.2742616131
0.8678729999999989,33755.2742616131
0.8679909999999988,33613.445378156845
0.8681099999999988,33613.445378156845
0.8682289999999988,33755.2742616131
0.8683479999999988,33472.80334728184
0.8684659999999987,33195.02074688153
0.8685869999999988,33613.445378156845
0.8687069999999988,33613.445378156845
0.8688249999999987,33195.02074688153
0.8689449999999987,33195.02074688153
0.8690659999999988,33333.33333333084
0.8691859999999988,33472.80334728184
0.8693059999999988,33333.33333333084
0.8694249999999988,33195.02074688153
0.8695459999999988,33195.02074688153
0.8696659999999988,33195.02074688153
0.8697869999999989,33333.33333333084
0.8699069999999989,33333.33333333084
0.8700269999999989,33057.85123967427
0.8701469999999989,32921.8106995894
0.8702689999999988,33195.02074688153
0.8703899999999989,33195.02074688153
0.8705099999999989,33195.02074688153
0.8706309999999989,33333.33333333084
0.8707509999999989,33333.33333333084
