Time,Frequency
0.000118,32786.885245901634
0.00023799999999999998,31999.999999999993
0.000362,31746.03174603174
0.00048800000000000004,31372.549019607843
0.0006140000000000001,30888.030888030888
0.0007430000000000001,30188.679245283027
0.0008730000000000001,29629.629629629646
0.001008,29197.08029197081
0.001143,28571.42857142856
0.001282,28268.55123674911
0.001423,28070.175438596503
0.001565,27681.66089965398
0.0017079999999999999,27303.754266211577
0.001854,27118.64406779658
0.002001,26755.852842809345
0.0021490000000000003,26490.066225165545
0.0023000000000000004,26229.508196721297
0.0024510000000000005,25889.96763754043
0.0026050000000000005,25641.025641025622
0.0027600000000000007,25396.82539682538
0.0029170000000000008,25236.59305993691
0.003075000000000001,25157.23270440254
0.0032340000000000008,25000.000000000004
0.0033930000000000006,24767.801857585146
0.0035540000000000007,24691.358024691384
0.0037160000000000006,24390.24390243901
0.0038780000000000004,24169.18429003017
0.004044000000000001,24169.18429003017
0.004209000000000001,24096.385542168624
0.004375000000000001,24024.024024024027
0.004541000000000002,23880.597014925417
0.004708000000000001,23738.872403560857
0.004876000000000001,23598.82005899706
0.005045000000000001,23323.615160349826
0.005215000000000001,23323.615160349826
0.005388000000000001,23255.813953488392
0.005558000000000001,23121.387283236996
0.005732000000000001,23188.405797101404
0.005904000000000001,23054.75504322766
0.006077000000000002,22922.636103151897
0.006251000000000001,22662.889518413598
0.006426000000000001,22792.02279202275
0.006604000000000001,22535.211267605617
0.006777000000000002,15810.276679841912
0.008113000000000002,15238.095238095255
0.008501000000000002,16949.152542372874
0.008638000000000002,13675.213675213665
0.008973000000000002,16949.152542372874
0.009223000000000002,21220.1591511936
0.009445000000000002,21857.92349726776
0.009600000000000003,22408.963585434194
0.009811000000000002,21739.130434782594
0.009957000000000002,21447.72117962466
0.010179000000000002,25396.825396825454
0.010330000000000002,19277.108433735
0.010494000000000002,18264.840182648437
0.010745000000000001,24242.42424242421
0.010932,28169.014084506918
0.011075000000000002,26143.79084967314
0.011216000000000002,18604.651162790706
0.011381000000000002,16032.06412825653
0.011646000000000002,20671.834625322987
0.011880000000000002,16736.40167364013
0.012033000000000002,16877.63713080167
0.012358000000000003,25236.593059936942
0.012507000000000002,23880.597014925355
0.012675000000000002,20565.552699228767
0.012842000000000003,20671.834625322987
0.013064000000000003,24169.184290030233
0.013229000000000003,22346.368715083863
0.013395000000000002,22222.22222222227
0.013587000000000002,22408.963585434194
0.013755000000000002,23054.75504322766
0.013944000000000002,24844.720496894457
0.014102000000000002,17543.859649122813
0.014266000000000001,17353.579175704937
0.014558000000000001,23255.813953488334
0.014727000000000002,16032.06412825653
0.014902000000000002,16293.279022403254
0.015226000000000002,20151.133501259457
0.015393000000000002,20253.16455696214
0.015623000000000001,23880.59701492548
0.015788,20887.72845952995
0.015958,22346.368715083758
0.016171,21739.130434782594
0.016316,20671.834625322896
0.016539,23738.872403560796
0.016703000000000003,23529.41176470588
0.016876000000000002,23809.523809523846
0.017043000000000003,11363.636363636368
0.017212,10709.504685408283
0.017747000000000002,14234.875444839858
0.017959000000000003,14134.275618374546
0.018309000000000002,18518.518518518442
0.018525000000000003,20460.358056265857
0.018741000000000004,23323.615160349647
0.018916000000000006,23323.615160349647
0.019084000000000007,18306.63615560641
0.01925900000000001,13888.888888888969
0.019521000000000007,15209.12547528521
0.019835000000000005,12176.560121765577
0.020047000000000006,10767.160161507394
0.020492000000000007,9512.485136741996
0.020790000000000006,10088.27238335437
0.021333000000000005,15748.031496062946
0.021583000000000005,13628.620102214634
0.021841000000000006,14953.271028037361
0.022170000000000006,20942.40837696333
0.022376000000000007,8205.128205128203
0.023351000000000007,9535.160905840292
0.024013000000000007,14084.507042253545
0.024190000000000007,14285.714285714337
0.024581000000000006,23460.410557184918
0.024750000000000005,15968.063872255554
0.024922000000000003,12799.999999999989
0.025251000000000003,13377.926421404653
0.025547000000000004,11188.811188811183
0.027190000000000006,14625.228519195642
0.027525000000000004,15296.367112810733
0.027737000000000005,16528.92561983477
0.028048000000000003,23188.40579710158
0.028221000000000003,23323.615160349884
0.028393,10282.776349614383
0.030257000000000003,8483.563096500535
0.030769,11065.006915629354
0.031200000000000002,15968.063872255554
0.031492,14466.546112115786
0.031701,12383.90092879269
0.032045,14466.546112115786
0.032346999999999994,14814.814814814847
0.032597999999999995,8849.557522123941
0.03288699999999999,9174.311926605527
0.03350199999999999,14842.300556586331
0.03375899999999999,9280.742459396808
0.03404099999999999,9356.725146198889
0.034620999999999985,10012.515644555768
0.03489599999999998,11695.906432748587
0.03541999999999998,18735.362997657914
0.03557999999999998,14209.59147424509
0.03584699999999998,9779.951100244507
0.03614299999999998,11695.906432748468
0.03666499999999998,24390.243902438884
0.036826999999999985,15841.584158415888
0.036992999999999984,10540.18445322799
0.03733199999999998,10928.961748633932
0.03775199999999998,11428.57142857144
0.03982799999999998,11019.283746556512
0.04036899999999998,23323.61516035012
0.04055399999999998,23668.639053254577
0.04071199999999998,21680.216802167946
0.04089199999999998,18306.63615560641
0.04108099999999998,17204.301075268813
0.04313799999999998,14311.270125223691
0.04330299999999998,9009.00900900901
0.04419099999999998,9060.022650056606
0.046574999999999984,12345.67901234576
0.04692599999999998,11299.435028248583
0.04890099999999998,9987.515605493181
0.05225899999999998,9535.160905840292
0.05271199999999998,13245.033112582772
0.05309799999999998,11019.283746556406
0.05331599999999998,9925.558312655072
0.05382399999999998,8629.98921251351
0.05475099999999998,8113.590263691677
0.05534499999999998,9060.022650056606
0.05754699999999998,18561.484918793467
0.31065599999999993,29520.295202949717
0.3107889999999999,28673.835125445024
0.31092699999999995,28169.0140845064
0.31106799999999996,27681.66089965554
0.31121099999999996,27303.75426621275
0.31135699999999994,27210.884353739973
0.31150399999999995,27027.027027025342
0.31165099999999996,26755.852842809927
0.31179999999999997,26578.073089701375
0.31194999999999995,26402.640264026602
0.31210099999999996,26058.63192182396
0.31225299999999995,25889.967637540143
0.31240799999999996,25806.451612905144
0.31256199999999995,25641.02564102737
0.31271799999999994,25477.707006370973
0.31287399999999993,25396.825396824614
0.3130319999999999,25316.45569619945
0.31318899999999994,25078.369905955034
0.31334799999999996,24922.118380061085
0.31350799999999995,24767.80185758378
0.313669,24767.80185758378
0.31383099999999997,24767.80185758378
0.313992,24539.877300614025
0.314154,24316.10942249065
0.314318,24316.10942249065
0.314483,24242.424242424466
0.314647,24169.184290028334
0.314813,24096.38554216875
0.31497800000000004,23738.872403562505
0.315145,23598.820058998568
0.315315,23809.523809527534
0.315484,23668.63905325798
0.31565099999999996,23323.615160351063
0.31582199999999994,23391.812865496464
0.31599399999999994,20833.33333333358
0.31616399999999995,18779.34272300549
0.32140899999999994,24844.72049689098
0.32156599999999996,12539.184952977517
0.321731,12718.60095389526
0.322204,24464.831804283873
0.32236,21447.721179627155
0.32253099999999996,19753.086419753636
0.32273299999999994,15904.572564611339
0.32293599999999995,9937.888198757762
0.32323599999999997,9615.384615384623
0.32374099999999995,16393.442622949344
0.32406799999999997,24316.10942249065
0.324229,10389.610389610485
0.324397,9302.325581395653
0.324999,15594.541910331818
0.32525699999999996,15686.274509803601
0.32551199999999997,13605.442176871271
0.325767,16129.032258064632
0.32609999999999995,10152.28426395925
0.45622799999999997,32000.000000003525
0.45635099999999995,31128.404669259824
0.45647799999999994,30534.35114503351
0.45660799999999996,30075.18796991984
0.45674,29739.776951670738
0.456874,29629.629629630457
0.457009,29304.02930402681
0.457144,28985.507246371144
0.457282,28880.86642598994
0.45742000000000005,28571.428571428318
0.45755900000000005,28368.794326240684
0.45770000000000005,28169.0140845064
0.45784100000000005,27874.56445993209
0.45798400000000006,27681.66089965554
0.45812800000000004,27586.20689655054
0.45827300000000004,27397.260273971246
0.45841800000000005,27118.644067797555
0.45856500000000006,26845.637583895776
0.45871300000000004,26666.666666669604
0.458863,26578.073089701375
0.459013,26315.789473681918
0.459164,22988.505747125448
0.73463,28985.507246371144
0.734763,27586.20689655054
0.7349060000000001,27027.02702703041
0.7350530000000001,26402.640264031437
0.735202,25974.025974028085
0.735356,25641.02564102737
0.73551,25157.232704399314
0.735668,24999.999999992346
0.735828,24999.999999992346
0.7359880000000001,24464.831804275567
0.7361480000000001,24615.384615383122
0.7363150000000002,24844.72049689098
0.7364730000000002,23952.095808379185
0.7366370000000002,17353.579175703308
0.7368070000000002,15999.99999999821
0.7370980000000003,15594.541910331818
0.7373070000000003,10349.288486416242
0.7376110000000002,12480.499219968746
0.7380800000000003,22988.505747132782
0.7382520000000002,14010.507880910973
0.7384280000000002,13961.60558464112
0.7388230000000002,22471.910112358102
0.7390010000000002,22792.02279202343
0.7391790000000003,22857.142857145376
0.7393520000000002,22471.910112358102
0.7395290000000002,22346.368715078777
0.7397080000000003,22099.447513806997
0.7398870000000003,21978.021978020108
0.7400700000000003,22099.447513813775
0.7402510000000003,21978.021978020108
0.7404320000000003,21857.923497262476
0.7406150000000004,21917.808219174494
0.7407980000000004,21857.923497269105
0.7409800000000004,21739.1304347871
0.7411640000000004,21739.1304347871
0.7413480000000003,21680.216802170802
0.7415320000000003,21680.216802170802
0.7417170000000003,21621.621621622704
0.7419010000000003,21505.37634408377
0.7420870000000003,21333.333333332524
0.7523250000000002,17429.193899782622
0.7549790000000003,10666.666666667841
0.7555530000000003,23054.755043228583
0.7571170000000003,13864.818024264905
0.7574410000000003,18561.48491879526
0.7576940000000002,17897.091722596073
0.7578720000000002,9163.802978235835
0.7609630000000002,18264.840182646338
0.7611290000000002,17817.3719376379
0.7614010000000002,20000.0000000022
0.7615780000000002,18099.547511314573
0.7618010000000002,9592.326139088713
0.7634680000000001,9111.617312072422
0.7639830000000002,14652.014652013406
0.7643460000000002,14760.147601474859
0.7645290000000002,14010.507880910973
0.7648880000000002,9696.969696970113
1.0211870000000003,27118.64406780266
1.0213270000000003,25559.105431309275
1.0214820000000002,25157.232704399314
1.0216400000000003,24844.720496899543
1.0218000000000003,24539.87730060985
1.0219620000000003,24242.42424241223
1.0221260000000003,23952.095808379185
1.0222920000000004,23668.63905325798
1.0224600000000004,20565.552699230237
1.0226300000000004,9501.18764845595
1.0228490000000003,10062.893081759725
1.0234720000000004,22792.02279202343
1.0236440000000004,22346.368715092634
1.0238230000000004,22284.122562674205
1.0240020000000003,22160.66481994118
1.0241820000000004,22160.66481994118
1.0243630000000004,22038.567493106075
1.0245430000000004,21798.365122615436
1.0247260000000005,21680.21680216428
1.0249100000000004,21505.37634408377
1.0250950000000005,21390.374331557985
1.0252820000000005,21390.374331557985
1.0254690000000004,21390.374331557985
1.0256560000000003,21276.595744684702
1.0258430000000003,21108.179419530235
1.0260320000000003,20997.375328085935
1.0262220000000002,20942.408376957625
1.0264130000000002,20887.728459528815
1.0266040000000003,20779.220779216477
1.0267960000000003,20618.556701028007
1.0269890000000004,20618.556701028007
1.0271840000000003,20671.834625315667
1.0273770000000004,20565.552699230237
1.0275710000000005,20565.552699230237
1.0277660000000004,20618.556701028007
1.0279600000000004,20618.556701028007
1.0281540000000005,20565.552699230237
1.0283480000000005,20565.552699230237
1.0285430000000004,20565.552699230237
1.0287370000000005,20356.23409669907
1.0331210000000004,10796.221322535615
1.0333310000000004,8146.639511201311
1.0338620000000005,10869.56521739027
1.0343130000000005,17241.379310344088
1.0345980000000006,22222.22222222741
1.0347770000000005,19559.902200494656
1.0349580000000005,9070.294784582275
1.0351860000000004,8592.910848549807
1.0372360000000005,13937.28222996335
1.0374190000000005,12698.41269841007
1.0378100000000006,19093.078758942167
1.0380490000000007,17021.276595745752
1.0382290000000007,16877.63713080655
1.0385190000000006,21563.34231806516
1.0387030000000006,21164.021164021753
1.0388900000000005,20997.375328085935
1.0390810000000006,21220.159151202097
1.0392710000000005,15238.095238098527
1.0397960000000004,9248.554913293561
1.0404810000000004,15209.125475284407
1.0406610000000005,11976.047904193572
1.0410070000000005,12048.192771084376
1.0413290000000004,15414.258188819964
1.0416710000000005,11267.605633803001
1.0418480000000006,9205.983889530455
1.0423810000000004,12841.091492780635
1.0427170000000003,12213.740458018061
1.0430040000000003,14869.888475838437
1.0433720000000002,22346.368715078777
1.0435420000000002,8602.150537633508
1.0444720000000003,13793.10344828055
1.0448160000000002,12121.212121214272
1.045052,8849.557522123738
1.045476,8333.33333333271
1.045956,12084.592145016193
1.0464360000000001,19047.619047625172
1.046618,18912.52955082464
1.046856,21739.130434773986
1.047041,19753.086419753636
1.0472240000000002,20151.133501260425
1.047446,21978.021978020108
1.0476210000000001,21164.021164021753
1.0478100000000001,22988.505747125448
1.0479990000000001,23668.63905325798
1.0481580000000001,21857.923497275737
1.050717,9205.983889528101
1.0513029999999999,15503.875968993421
1.051586,11747.430249634072
1.0528239999999998,12364.760432765388
1.0547069999999998,8040.201005024486
1.0553629999999998,15238.095238092083
1.055702,11065.006915628876
1.055888,11019.283746556406
1.056425,20671.834625327527
1.056614,20942.408376969797
1.0568119999999999,21052.631578944765
1.0569959999999998,20671.834625315667
1.057192,12738.853503183234
1.057383,12882.44766505672
1.739151,29850.74626863923
1.739282,28776.97841726614
1.739419,28169.014084511906
1.73956,27491.40893470401
1.739703,26845.637583880773
1.739851,26402.64026401209
1.7400010000000001,25806.451612900524
1.7401540000000002,25559.105431309275
1.7403110000000002,25477.707006357457
1.7404670000000002,25236.593059927138
1.7406250000000003,24844.720496899543
1.7407840000000003,24539.877300626562
1.7409470000000002,24464.831804283873
1.7411100000000002,24169.18429002428
1.7412740000000002,23952.095808379185
1.7414410000000002,23738.8724035586
1.7416080000000003,23529.4117647054
1.7417780000000003,23460.41055718993
1.7419480000000003,23255.813953495137
1.7421190000000002,23054.755043235957
1.7422920000000002,22857.142857152627
1.742466,22662.889518410535
1.742642,22535.211267598952
1.7428190000000001,22598.87005649938
1.7429970000000001,22408.963585437898
1.743173,22284.122562674205
1.743354,22160.66481994118
1.743532,21978.021978020108
1.7437150000000001,21978.021978020108
1.7438960000000001,21798.365122615436
1.7440790000000002,21798.365122615436
1.7442630000000001,21857.923497262476
1.7444460000000002,21563.34231805225
1.7446290000000002,21563.34231805225
1.7448170000000003,21680.21680216428
1.7450000000000003,21390.374331545285
1.7451860000000003,21220.159151189597
1.7453740000000004,20997.375328085935
1.7455630000000004,21276.595744684702
1.7457550000000004,21333.333333332524
1.7459390000000004,20779.220779216477
1.7461300000000004,20997.375328085935
1.7463240000000004,21220.159151202097
1.7465110000000004,20833.33333333659
1.7467010000000003,20887.728459528815
1.7468950000000003,20997.375328085935
1.7470840000000003,20833.33333333659
1.7472760000000003,18518.518518519035
1.7474680000000002,16563.146997929223
1.7477080000000003,16494.845360822404
1.7479510000000003,11126.564673155055
2.274344,9937.888198755707
2.274821,8447.729672650197
2.427458,14010.5078809028
2.4377800000000005,12403.10077519367
2.4382510000000006,19753.086419764466
2.4487680000000003,17582.417582413942
2.786028,20942.408376957625
2.786197,20618.556701028007
2.78641,22471.910112358102
2.786585,22535.21126761305
2.786766,22727.272727278672
2.78694,22222.222222213706
2.787118,22222.222222213706
2.7873,22160.664819954807
2.787478,21917.808219181163
2.787661,21563.342318039347
2.787843,21333.333333332524
2.7880320000000003,21621.62162163568
2.788218,21390.374331557985
2.788402,20887.728459540926
2.788592,20725.38860104833
2.788785,18390.804597702707
2.7913059999999996,12924.071082383243
2.791663,17021.27659572967
2.791925,19323.671497578172
2.792133,17204.301075279338
2.792339,16985.138004258326
2.792598,18912.52955082464
2.79281,18735.362997650303
2.793021,16736.401673633147
2.793237,11627.906976740063
2.793499,8333.33333333271
2.793925,9378.663540443125
2.7944590000000002,14842.300556578306
2.7947780000000004,16528.925619829555
2.7949980000000005,16563.146997929223
2.7952620000000006,16597.51037344841
2.7954810000000005,12461.059190030543
2.8057010000000004,13745.704467362493
2.807109,15594.541910338568
2.807416,19559.902200494656
2.8092539999999997,10282.776349615118
2.8098259999999997,15122.873345942027
2.8100319999999996,10723.860589813577
2.8103549999999995,12924.071082392516
2.8107779999999996,20202.020202028318
2.8123439999999995,8918.61761426832
2.8127099999999996,10825.43978348729
2.8132409999999997,19230.769230749996
2.813449,19277.108433722107
2.813657,19184.652278172318
2.813864,9512.485136743448
2.815224,9070.294784582275
2.815751,13114.754098360669
2.8186090000000004,15936.254980079604
2.8189120000000005,15503.875969000093
2.8191110000000004,15414.258188833153
2.8194280000000003,11799.410029503148
2.81963,11887.0728083223
2.8244179999999997,12269.938650304925
2.8399089999999996,9132.420091320855
3.132315,11461.318051578142
3.132784,8492.569002121156
3.1337260000000002,10309.278350514003
3.3643670000000006,28070.175438609425
3.3645230000000006,30888.03088805627
3.3646520000000004,30418.250950581652
3.3647820000000004,29850.74626863923
3.3649150000000003,12539.18495297097
3.3650500000000005,12364.760432761144
3.3655530000000007,27118.64406780266
3.365697000000001,26490.06622520237
3.3658480000000006,26229.508196721337
3.3659990000000004,26058.6319218004
3.3661530000000006,25806.45161288204
3.3663060000000007,25236.59305990946
3.366463000000001,25078.36990594194
3.366623000000001,24922.118380061085
3.366782000000001,24767.80185759655
3.366944000000001,24539.877300626562
3.367105000000001,24242.424242428544
3.367270000000001,24169.18429002428
3.367435000000001,24024.024024030034
3.367601000000001,23880.59701494304
3.3677680000000008,23668.639053273528
3.3679360000000007,23391.812865507854
3.3681060000000005,23323.615160351063
3.3682780000000005,23188.405797113704
3.3684490000000005,22922.636103156285
3.3686230000000004,22792.02279200901
3.3687980000000004,22662.889518410535
3.3689740000000006,22598.870056513555
3.3691510000000005,22408.963585451835
3.3693280000000003,22222.22222224112
3.369508,22160.664819954807
3.369688,21917.808219181163
3.369869,21857.923497262476
3.370053,21798.365122602245
3.370235,21621.62162160973
3.37042,21390.374331532585
3.3706050000000003,21447.721179614386
3.3707940000000005,21857.923497262476
3.3709780000000005,21680.21680216428
3.3711600000000006,21390.374331557985
3.3774060000000006,14953.271028032514
3.3776200000000007,8368.20083682046
