Time,Frequency
7.599999999999999e-05,51612.90322580646
0.00015299999999999998,50955.41401273887
0.00023099999999999998,50314.465408805045
0.00030999999999999995,49689.44099378882
0.00038999999999999994,48780.48780487806
0.00047099999999999996,47904.19161676648
0.0005539999999999999,47619.04761904763
0.0006379999999999999,47058.82352941176
0.0007219999999999999,46511.627906976726
0.0008079999999999999,45977.011494252845
0.0008939999999999999,45454.54545454544
0.000982,45197.74011299439
0.00107,44692.737430167625
0.0011589999999999999,44198.89502762432
0.001249,43715.84699453552
0.0013399999999999998,43478.26086956519
0.001432,43243.24324324323
0.001524,42780.74866310163
0.001617,42553.19148936175
0.0017109999999999998,42328.04232804234
0.0018049999999999997,41884.81675392666
0.0018999999999999998,41666.66666666659
0.001996,41450.77720207253
0.002092,41237.113402061914
0.002189,41025.64102564105
0.002286,40609.137055837535
0.002384,40404.04040404035
0.002483,40404.04040404035
0.002582,40201.00502512564
0.0026810000000000002,39800.995024875665
0.002781,39603.96039603962
0.002882,39603.96039603962
0.002983,39408.866995073884
0.003084,39215.68627450977
0.003186,39215.68627450977
0.003288,39024.39024390246
0.0033900000000000002,38647.342995169136
0.003493,38461.53846153849
0.003597,38461.53846153849
0.003701,38277.51196172257
0.003805,38095.23809523815
0.003909999999999999,38095.23809523808
0.0040149999999999995,37914.69194312792
0.0041199999999999995,37735.84905660371
0.004226,37558.6854460093
0.004332,37558.6854460093
0.004439,37558.6854460093
0.004545,37209.30232558141
0.004652000000000001,37037.037037037175
0.00476,37209.30232558141
0.004868,37037.03703703703
0.004975,36866.359447004725
0.005084,36866.359447004725
0.005192,36697.24770642211
0.005300999999999999,36697.24770642211
0.005409999999999999,36697.24770642211
0.005518999999999999,36529.680365296874
0.0056279999999999985,36363.63636363641
0.005737999999999998,36363.63636363641
0.005847999999999998,36199.09502262446
0.005957999999999998,36199.09502262446
0.006068999999999998,36199.09502262446
0.006178999999999998,36036.03603603604
0.006289999999999998,36036.03603603604
0.006400999999999998,36036.03603603604
0.006511999999999998,35874.43946188339
0.006622999999999998,35714.285714285674
0.006734999999999998,35874.43946188339
0.006846999999999998,35874.43946188339
0.006957999999999998,35874.43946188339
0.007069999999999998,36036.03603603604
0.007180999999999998,36036.03603603604
0.007291999999999998,36036.03603603604
0.007402999999999998,36199.09502262446
0.007513999999999998,36363.63636363641
0.007623999999999998,36363.636363636266
0.007733999999999998,36363.63636363613
0.007843999999999999,36199.095022624315
0.007954,36036.03603603604
0.008065,36036.03603603604
0.008176,36036.03603603604
0.008287,36036.03603603604
0.008398,35874.43946188353
0.008509,35714.28571428595
0.102915,41025.64102564087
0.103012,40609.137055837
0.10311000000000001,40201.00502512467
0.10320900000000001,39999.99999999886
0.10330900000000001,39800.99502487429
0.10340900000000001,39603.96039603809
0.10351000000000002,39215.686274507934
0.10361100000000002,38834.95145630847
0.10371400000000003,38834.95145630847
0.10381700000000003,38461.53846153849
0.10392000000000004,38277.51196172233
0.10402500000000003,38095.23809523776
0.10412900000000004,37735.849056605555
0.10423500000000004,37735.849056605555
0.10434100000000003,37735.849056605555
0.10444700000000003,37558.68544601098
0.10455300000000002,37209.30232558261
0.10466000000000002,37209.30232558261
0.10476800000000001,37209.30232558261
0.10487500000000001,37037.03703703807
0.104983,36866.35944700546
0.105091,36697.2477064227
0.1052,36363.636363636695
0.105309,36363.636363636695
0.10542,36697.2477064227
0.105529,36199.0950226246
0.105638,36199.0950226246
0.10575,36199.0950226246
0.105859,35874.43946188325
0.105971,35874.43946188325
0.106082,35714.2857142854
0.106194,35714.2857142854
0.106306,35555.55555555508
0.106418,35398.23008849495
0.106531,35398.23008849495
0.106644,35398.23008849495
0.106757,35242.2907488979
0.10687,35087.719298244694
0.10698400000000001,35087.719298244694
0.10709800000000001,34934.49781659282
0.10721200000000002,35087.719298244694
0.10732700000000002,35087.719298244694
0.10744000000000002,34782.60869565097
0.10755500000000003,34782.60869565097
0.10767000000000003,34782.60869565097
0.10778500000000003,34782.60869565097
0.10790000000000004,34782.60869565097
0.10801500000000004,34632.03463203328
0.10813000000000005,34334.763948496235
0.10824600000000005,34482.758620688175
0.10836300000000006,34632.03463203328
0.10847800000000006,34632.03463203328
0.10859400000000007,34482.758620688175
0.10870900000000007,34334.763948496235
0.10882600000000008,34334.763948496235
0.10894200000000008,34188.03418803244
0.10905900000000009,34188.03418803244
0.10917600000000009,34334.763948496235
0.1092930000000001,34334.763948496235
0.1094090000000001,34188.03418803244
0.10952600000000011,33898.30508474575
0.10964300000000012,33898.30508474575
0.10976200000000011,34188.03418803244
0.10987900000000012,34042.55319148949
0.10999600000000012,33898.30508474774
0.11011400000000011,34042.55319148949
0.11023200000000011,33898.30508474575
0.11034900000000011,33755.2742616052
0.11046800000000011,33898.30508474774
0.1105860000000001,33755.2742616052
0.1107040000000001,33472.80334728184
0.11082300000000009,33613.44537815292
0.11094300000000008,33613.44537815292
0.11106100000000008,33333.33333333469
0.11118100000000007,33472.80334728184
0.11130100000000007,33613.44537815292
0.11142000000000006,33613.44537815292
0.11153900000000005,33333.33333333469
0.11165800000000005,33333.33333333469
0.11177900000000004,33333.33333333469
0.11189800000000004,33333.33333333469
0.11201900000000004,33333.33333333469
0.11213800000000003,33333.33333333469
0.11225900000000003,33333.33333333469
0.11237800000000002,33195.020746889175
0.11249900000000002,33333.33333333469
0.11261900000000001,33195.020746889175
0.112739,33195.020746889175
0.11286,33057.85123967048
0.11298,33057.85123967048
0.113102,33195.020746889175
0.11322199999999999,33195.020746889175
0.11334299999999999,32921.8106995894
0.11346299999999998,29629.629629630457
0.11358599999999998,30075.187969926115
0.11373299999999997,26666.666666667137
0.21569099999999997,46242.77456647225
0.21577699999999997,45714.2857142835
0.21586399999999997,45197.740112991676
0.21595199999999998,44692.73743016448
0.21604099999999998,44198.895027620776
0.216131,43956.043956040216
0.216222,43956.043956040216
0.216313,43478.26086956108
0.216404,42780.74866309692
0.21649700000000002,42553.19148935684
0.21659100000000003,42553.19148935684
0.21668500000000004,42105.26315788953
0.21677900000000005,41666.666666661135
0.21687500000000007,41666.666666661135
0.21697100000000008,41450.77720206685
0.2170670000000001,41025.64102564087
0.2171640000000001,40816.32653061766
0.2172620000000001,40609.13705584272
0.21736000000000008,40404.04040404531
0.21745900000000007,40201.00502513028
0.21755800000000006,40000.0000000044
0.21765800000000005,40000.0000000044
0.21775800000000003,39800.99502487978
0.21785800000000002,39603.96039604353
0.217959,39408.86699507759
0.21806,39024.390243905684
0.218162,38834.9514563137
0.218265,38834.9514563137
0.21836799999999998,38834.9514563137
0.21847099999999997,38647.342995171886
0.21857399999999996,38461.53846154106
0.21867799999999996,38461.53846154106
0.21878199999999995,38277.51196172487
0.21888599999999994,37914.69194312995
0.21899099999999994,37914.69194312995
0.21909699999999993,37914.69194312995
0.21920199999999992,37735.849056605555
0.21930799999999992,37558.68544601098
0.21941399999999991,37383.17757009486
0.2195209999999999,37383.17757009486
0.2196279999999999,37383.17757009486
0.2197349999999999,37209.30232558261
0.2198419999999999,37037.03703703807
0.2199499999999999,37037.03703703807
0.2200579999999999,36866.35944700546
0.2201659999999999,36697.2477064227
0.2202749999999999,36697.2477064227
0.22038399999999989,36697.2477064227
0.22049299999999988,36529.68036529731
0.22060199999999988,36529.68036529731
0.22071199999999988,36529.68036529731
0.22082099999999988,36199.0950226246
0.22093099999999988,36199.0950226246
0.22104199999999988,36199.0950226246
0.22115199999999988,36036.03603603604
0.22126299999999988,36036.03603603604
0.22137399999999988,36036.03603603604
0.22148499999999988,36036.03603603604
0.22159599999999988,35874.43946188325
0.22170699999999988,35714.2857142854
0.22181899999999988,35714.2857142854
0.22193099999999988,35714.2857142854
0.22204299999999988,35555.55555555508
0.22215499999999988,35398.23008849495
0.22226799999999988,35398.23008849495
0.22238099999999988,35398.23008849495
0.2224939999999999,35398.23008849495
0.2226069999999999,35398.23008849495
0.2227199999999999,35242.2907488979
0.2228329999999999,35087.719298244694
0.2229469999999999,35087.719298244694
0.2230609999999999,35087.719298244694
0.2231749999999999,34934.49781659282
0.2232889999999999,34934.49781659282
0.2234039999999999,34934.49781659282
0.2235179999999999,34782.60869565097
0.22363299999999992,34782.60869565097
0.22374799999999992,34632.03463203328
0.22386299999999992,34632.03463203328
0.22397899999999993,34632.03463203328
0.22409399999999993,34482.758620688175
0.22420999999999994,34482.758620688175
0.22432599999999994,34482.758620688175
0.22444199999999995,34334.763948496235
0.22455799999999995,34334.763948496235
0.22467499999999996,34632.03463203328
0.22479099999999996,34632.03463203328
0.22490599999999997,34632.03463203328
0.22502199999999997,34782.60869565097
0.22513699999999998,34934.49781659282
0.22525199999999998,34934.49781659282
0.22536599999999998,34782.60869565097
0.225481,34334.763948496235
0.474075,20460.35805626731
0.47419,21680.21680216754
0.474466,42553.19148935684
0.474559,42105.26315788953
0.474654,41666.666666661135
0.47474900000000003,41666.666666661135
0.47484600000000005,41666.666666661135
0.47494100000000006,41025.64102564087
0.47503800000000007,40816.32653061766
0.47513600000000006,40609.137055837
0.47523400000000005,40404.04040403398
0.47533300000000006,40201.00502512467
0.4754320000000001,40000.0000000044
0.47553200000000007,39603.96039604353
0.47563200000000005,39603.96039604353
0.47573400000000005,39603.96039604353
0.47583400000000003,39408.866995072196
0.475936,39408.866995072196
0.47603700000000004,39024.390243900394
0.47613900000000003,38647.342995166706
0.47624200000000005,38834.9514563137
0.47634600000000005,38834.9514563137
0.47644800000000004,38277.51196171979
0.47655200000000003,38277.51196171979
0.47665700000000005,38461.53846154106
0.47676100000000005,38095.238095240275
0.47686500000000004,37914.691943124955
0.47697100000000003,37914.691943124955
0.47707600000000006,37914.691943124955
0.47718200000000005,37914.691943124955
0.4772870000000001,37558.685446006086
0.47739300000000007,37383.177570085165
0.4775000000000001,37383.177570085165
0.4776070000000001,37383.177570085165
0.47771400000000014,37209.30232557781
0.47782100000000016,37037.03703703807
0.47792900000000016,37037.03703703807
0.47803700000000016,36866.359447000745
0.47814500000000015,36697.24770641335
0.4782540000000002,36697.24770641335
0.4783630000000002,36529.680365292676
0.47847200000000023,36363.636363636695
0.47858200000000023,36363.636363636695
0.47869200000000023,36363.636363636695
0.4788020000000002,36199.09502262006
0.4789120000000002,36199.09502262006
0.47902300000000025,36036.03603603604
0.47913300000000025,35874.439461878785
0.47924500000000025,36036.03603602703
0.4793560000000003,35874.439461878785
0.4794670000000003,35714.2857142854
0.4795790000000003,35555.55555555947
0.4796910000000003,35714.2857142854
0.4798040000000003,35398.23008849495
0.4799150000000003,35555.55555555947
0.4800300000000003,35874.43946188772
0.4801400000000003,35398.230088503646
0.48025300000000026,35242.29074890222
0.48036600000000024,28169.0140845064
0.48048000000000024,25477.707006370973
0.48065000000000024,27972.027972032574
0.4807940000000002,31250.00000000263
0.4809360000000002,27777.77777777677
0.4810500000000002,27874.56445993209
0.4812240000000002,25477.707006370973
0.4813370000000002,23323.615160351063
0.4815380000000002,23323.615160351063
0.48168000000000016,14059.753954306141
