Time,Frequency
7.4e-05,52631.578947368434
0.00015,52287.5816993464
0.00022599999999999996,51612.90322580644
0.000303,50955.414012738845
0.000381,50314.46540880502
0.00046,49382.7160493827
0.00054,48780.48780487802
0.000622,48192.77108433734
0.0007040000000000001,47619.04761904763
0.0007880000000000001,47619.04761904763
0.000872,47337.27810650888
0.000956,46783.62573099417
0.001041,46511.627906976784
0.001127,46242.77456647399
0.0012129999999999999,45714.28571428571
0.0013,45454.54545454547
0.001388,45454.54545454547
0.0014759999999999999,45197.74011299433
0.0015639999999999999,44692.737430167566
0.001653,44444.44444444444
0.001743,44444.44444444444
0.001833,44198.89502762427
0.001923,43956.04395604393
0.002014,43715.84699453552
0.002105,43478.26086956519
0.002197,43243.24324324318
0.0022890000000000002,43010.75268817195
0.0023820000000000004,42780.74866310158
0.0024750000000000006,42553.19148936175
0.0025690000000000005,42553.19148936175
0.0026630000000000004,42328.04232804234
0.0027570000000000003,42105.263157894726
0.0028520000000000004,42105.263157894726
0.0029470000000000004,41884.81675392666
0.0030420000000000004,41666.66666666659
0.0031380000000000006,41666.66666666659
0.0032340000000000008,41666.66666666659
0.003330000000000001,41666.66666666659
0.003426000000000001,41450.77720207253
0.0035220000000000013,41237.113402061914
0.003619000000000001,41237.113402061914
0.003716000000000001,41025.641025640965
0.003813000000000001,40816.326530612154
0.003911000000000001,40816.32653061225
0.004009000000000001,40609.137055837535
0.004107000000000001,40609.137055837535
0.004206000000000001,40404.04040404035
0.004304000000000001,40201.00502512555
0.004404000000000002,40201.00502512555
0.004503000000000002,39999.9999999999
0.004603000000000002,39800.99502487549
0.004703000000000002,39800.99502487549
0.004804000000000003,39800.99502487549
0.004904000000000003,39603.96039603945
0.005005000000000003,39603.96039603945
0.005106000000000004,39408.866995073884
0.005207000000000004,39408.866995073884
0.005309000000000004,39408.866995073884
0.005410000000000004,39408.866995073884
0.005512000000000004,39408.866995073884
0.005613000000000004,39215.686274509935
0.005715000000000004,39024.39024390254
0.005817000000000004,39024.39024390254
0.005920000000000003,39024.39024390254
0.006022000000000003,38834.95145631076
0.006125000000000003,38647.342995169136
0.006228000000000003,38647.342995169136
0.0063320000000000026,38647.342995169136
0.006435000000000002,38647.342995169136
0.006539000000000002,38834.95145631076
0.006642000000000002,38647.342995169136
0.006745000000000002,38461.53846153849
0.006849000000000002,38461.53846153849
0.006953000000000002,38461.53846153849
0.007057000000000002,38461.53846153849
0.0071610000000000016,38277.51196172249
0.0072650000000000015,38277.51196172249
0.0073700000000000015,38277.51196172249
0.0074740000000000015,38277.51196172249
0.0075790000000000015,38277.51196172249
0.0076830000000000015,38277.51196172249
0.0077880000000000015,38277.51196172265
0.007892000000000001,37914.69194312808
0.007997,37914.69194312808
0.008103,38095.23809523839
0.008208,37914.69194312808
0.008313,37735.84905660371
0.008419,37558.685446009455
0.008525,37209.30232558141
0.008631999999999999,36866.35944700458
0.00874,36036.03603603604
0.114864,52287.58169934628
0.11494,51612.90322581029
0.115017,50955.414012741945
0.11509499999999999,50314.46540880741
0.11517399999999998,50000.00000000204
0.11525399999999998,49689.44099379052
0.11533399999999998,49079.75460122805
0.11541499999999998,48484.84848484893
0.11549699999999997,47904.19161676633
0.11557999999999997,47337.27810650818
0.11566399999999998,46783.62573099293
0.11574899999999998,46242.77456647225
0.11583499999999998,45714.2857142835
0.11592199999999998,45454.545454543004
0.11600999999999999,45197.740112991676
0.11609799999999999,44943.820224716204
0.116187,44692.73743016448
0.116276,44198.89502762416
0.11636600000000001,43956.04395604692
0.116457,43956.04395604692
0.116548,43715.84699453821
0.11663899999999999,43478.260869567646
0.11673099999999999,43243.24324324541
0.11682299999999998,42780.748663103266
0.11691599999999998,42780.748663103266
0.11700999999999998,42553.19148936312
0.11710299999999997,42328.042328043506
0.11719799999999997,42328.042328043506
0.11729199999999997,41884.81675392742
0.11738699999999996,41666.66666666716
0.11748299999999996,41666.66666666716
0.11757899999999996,41666.66666666716
0.11767499999999996,41450.777202072815
0.11777099999999996,41237.113402061914
0.11786799999999996,41237.113402061914
0.11796499999999996,41025.64102564087
0.11806199999999996,40609.137055837
0.11815999999999996,40609.137055837
0.11825899999999996,40816.326530611885
0.11835699999999996,40609.137055837
0.11845499999999996,40201.00502512467
0.11855399999999996,40201.00502512467
0.11865399999999997,40201.00502512467
0.11875299999999997,39999.99999999886
0.11885299999999997,39999.99999999886
0.11895299999999998,39999.99999999886
0.11905299999999998,39800.99502487429
0.11915299999999998,39800.99502487429
0.11925399999999999,39800.99502487429
0.11935399999999999,39603.96039603809
0.11945499999999999,39408.866995072196
0.119556,39408.866995072196
0.119658,39408.866995072196
0.119759,39408.866995072196
0.11986100000000001,39408.866995072196
0.11996200000000001,39215.686274507934
0.12006400000000002,39215.686274507934
0.12016600000000002,39215.686274507934
0.12026800000000003,39215.686274507934
0.12037000000000003,39215.686274507934
0.12047200000000004,39024.390243900394
0.12057400000000004,39024.390243900394
0.12067700000000005,39024.390243900394
0.12077900000000005,39024.390243900394
0.12088200000000006,39024.390243900394
0.12098400000000006,38834.95145630847
0.12108700000000007,38834.95145630847
0.12119000000000008,38834.95145630847
0.12129300000000008,38834.95145630847
0.12139600000000009,38647.342995166706
0.12149900000000009,38647.342995166706
0.1216030000000001,38647.342995166706
0.1217060000000001,38647.342995166706
0.12181000000000011,38647.342995166706
0.12191300000000012,38277.51196172233
0.12201700000000013,38277.51196172233
0.12212200000000012,38461.53846153592
0.12222600000000013,38277.51196172233
0.12233000000000013,38095.238095240275
0.12243500000000013,38095.238095240275
0.12254000000000012,37914.69194312995
0.12264500000000012,37735.849056605555
0.12275100000000011,37735.849056605555
0.1228570000000001,37735.849056605555
0.1229630000000001,37558.68544601098
0.1230690000000001,37558.68544601098
0.12317600000000009,37558.68544601098
0.12328200000000009,37383.17757009486
0.12338900000000008,37383.17757009486
0.12349600000000008,37383.17757009486
0.12360300000000007,37209.30232558261
0.12371000000000007,37037.03703703807
0.12381800000000007,37037.03703703807
0.12392600000000006,37209.30232558261
0.12403400000000006,37037.03703703807
0.12414100000000006,36866.35944700546
0.12425000000000005,36866.35944700546
0.12435800000000005,36697.2477064227
0.12446700000000005,36529.68036529731
0.12457600000000005,36199.0950226246
0.22983500000000004,43956.04395604692
0.22994400000000004,54794.52054795291
0.23001700000000003,53691.27516779155
0.23009000000000002,52287.58169935102
0.230166,51948.05194805617
0.230243,50955.414012741945
0.23032,50000.00000000204
0.2304,49382.71604938409
0.23048,48780.4878048788
0.230562,47904.19161676633
0.230644,47058.8235294108
0.230729,46511.62790697526
0.230814,45977.011494250895
0.230901,45977.011494250895
0.230988,45454.545454543004
0.231075,44943.820224716204
0.231164,44692.73743016448
0.23125300000000001,44692.73743016448
0.23134300000000002,44198.895027620776
0.23143200000000003,43715.84699453158
0.23152400000000004,43956.043956040216
0.23161500000000004,43478.26086956108
0.23170600000000005,43243.243243238925
0.23179900000000006,43243.243243238925
0.23189100000000007,42780.74866309692
0.23198400000000008,42553.19148935684
0.2320780000000001,42328.04232803729
0.2321720000000001,42105.26315788953
0.2322670000000001,42105.26315788953
0.23236200000000012,41884.81675392133
0.23245700000000014,41666.666666661135
0.23255300000000015,41450.77720206685
0.23264900000000016,41237.11340205601
0.23274600000000017,41237.11340205601
0.2328430000000002,41025.64102564087
0.2329400000000002,40816.32653061766
0.2330380000000002,40816.32653061766
0.23313600000000018,40609.13705584272
0.23323400000000016,40404.04040404531
0.23333300000000015,40404.04040404531
0.23343200000000014,40201.00502513028
0.23353100000000013,40201.00502513028
0.23363100000000012,40000.0000000044
0.2337300000000001,39800.99502487978
0.2338310000000001,39800.99502487978
0.23393100000000008,39603.96039604353
0.23403200000000007,39603.96039604353
0.23413300000000006,39603.96039604353
0.23423400000000005,39603.96039604353
0.23433500000000004,39408.86699507759
0.23443600000000003,39215.68627451327
0.23453800000000002,39215.68627451327
0.23464000000000002,39215.68627451327
0.234742,39215.68627451327
0.234844,39024.390243905684
0.234946,39024.390243905684
0.23504899999999998,39024.390243905684
0.23515099999999997,38834.9514563137
0.23525399999999996,38834.9514563137
0.23535699999999996,38647.342995171886
0.23545999999999995,38647.342995171886
0.23556399999999994,38647.342995171886
0.23566699999999993,38461.53846154106
0.23577099999999993,38461.53846154106
0.23587499999999992,38461.53846154106
0.2359789999999999,38461.53846154106
0.2360829999999999,38277.51196172487
0.2361869999999999,38277.51196172487
0.2362919999999999,38277.51196172487
0.23639599999999988,38095.238095240275
0.23650099999999988,37914.69194312995
0.23660599999999987,37914.69194312995
0.23671199999999987,38095.238095240275
0.23681699999999986,37914.69194312995
0.23692199999999985,37914.69194312995
0.23702799999999985,37914.69194312995
0.23713299999999984,37735.849056605555
0.23723899999999984,37558.68544601098
0.23734499999999983,37558.68544601098
0.23745199999999983,37558.68544601098
0.23755799999999982,37383.17757009486
0.23766499999999982,37209.30232558261
0.23777199999999982,37209.30232558261
0.2378799999999998,37209.30232558261
0.2379869999999998,36866.35944700546
0.2380949999999998,36697.2477064227
0.2382039999999998,36866.35944700546
0.2383129999999998,36866.35944700546
0.2384209999999998,36866.35944700546
0.2385299999999998,36697.2477064227
0.2386379999999998,36697.2477064227
0.2387479999999998,36866.35944700546
0.2388559999999998,36697.2477064227
0.2389649999999998,36697.2477064227
0.2390739999999998,36529.68036529731
0.23918299999999978,36199.0950226246
0.23929299999999978,36036.03603603604
0.23940399999999978,35555.55555555508
0.3457949999999998,54054.05405406082
0.3458679999999998,52631.57894737345
0.3459429999999998,51612.90322580105
0.34601999999999977,50955.41401273294
0.3460979999999998,50632.91139240779
0.3461769999999998,50314.46540879863
0.3462559999999998,49382.71604936717
0.3463359999999998,48484.848484840775
0.34641799999999984,48192.7710843375
0.34650099999999984,47904.19161677429
0.34658399999999984,47058.82352942617
0.3466679999999998,46783.62573100052
0.3467539999999998,46783.62573100052
0.3468389999999998,46242.774566479675
0.34692499999999976,46242.774566479675
0.34701199999999977,46242.774566479675
0.34709799999999974,45714.28571429075
0.34718499999999974,44692.73743017141
0.3472729999999997,40201.00502512467
0.34736399999999973,36363.636363636695
0.3474719999999997,40201.00502512467
0.3475839999999997,45197.74011299876
0.34767099999999973,44444.44444445482
0.3477609999999997,44198.89502762755
0.3478509999999997,43956.043956040216
0.3479419999999997,43715.84699453821
0.3480329999999997,43478.2608695742
0.3481249999999997,43478.2608695742
0.34821699999999967,43010.75268818037
0.34830899999999965,42553.191489369405
0.34840299999999963,42328.042328043506
0.3484969999999996,42328.042328043506
0.3485919999999996,42105.263157901834
0.3486859999999996,41666.66666667318
0.3487819999999996,41884.81675392742
0.3488779999999996,41666.666666661135
0.3489729999999996,41450.777202072815
0.3490699999999996,41450.777202072815
0.3491659999999996,41237.11340205601
0.3492629999999996,41237.11340205601
0.3493599999999996,41025.64102564087
0.34945699999999963,40816.32653061766
0.3495549999999996,41025.64102564087
0.3496529999999996,40816.32653060611
0.3497499999999996,40201.00502512467
0.34984899999999963,40201.00502512467
0.3499489999999996,40201.00502512467
0.35004799999999964,40000.0000000044
0.3501479999999996,40000.0000000044
0.3502479999999996,39800.99502487429
0.3503479999999996,39800.99502487429
0.3504489999999996,39800.99502487429
0.3505489999999996,39603.96039603265
0.35064999999999963,39603.96039603265
0.35075099999999965,39603.96039603265
0.35085199999999966,39408.866995072196
0.3509529999999997,39408.866995072196
0.3510549999999997,39603.96039603265
0.3511559999999997,39408.866995072196
0.3512569999999997,39215.68627451327
0.3513589999999997,39215.68627451327
0.3514609999999997,39215.68627451327
0.3515629999999997,39024.390243900394
0.3516649999999997,39024.390243900394
0.3517679999999997,39215.68627451327
0.3518699999999997,38834.9514563137
0.3519719999999997,38834.9514563137
0.35207599999999967,39024.390243900394
0.35217799999999966,38647.342995166706
0.3522809999999997,38647.342995166706
0.35238499999999967,38647.342995166706
0.3524879999999997,38461.53846154106
0.3525919999999997,38461.53846154106
0.3526959999999997,38277.51196171979
0.35279999999999967,38277.51196171979
0.3529049999999997,38277.51196171979
0.3530089999999997,38095.238095230205
0.3531139999999997,37914.691943124955
0.3532189999999997,37914.691943124955
0.3533249999999997,37735.849056595674
0.35342999999999974,37558.685446006086
0.35353699999999977,37735.849056605555
0.35364299999999976,37735.849056605555
0.35374899999999976,37383.17757009486
0.35385499999999975,37383.17757009486
0.35396299999999975,37558.685446006086
0.35406899999999975,37209.30232557781
0.35417599999999977,37209.30232557781
0.35428399999999977,37209.30232557781
0.3543909999999998,37209.30232557781
0.3544989999999998,36866.359447000745
0.3546059999999998,32258.064516125654
0.5642709999999999,26058.631921819248
0.5644759999999999,25396.82539682014
0.5645779999999999,18912.52955082464
0.5647909999999999,21505.37634408377
0.565001,30188.679245287607
0.565163,37914.69194313493
0.5652659999999999,37209.302325587414
0.5653739999999999,37383.177570104555
0.5654809999999999,37209.302325587414
0.5655879999999999,37037.03703703807
0.5656959999999999,37037.03703703807
0.5658039999999999,37209.302325587414
0.5659119999999999,36697.24770643204
0.5660189999999998,36529.68036530194
0.5661299999999998,36866.359447000745
0.5662379999999998,36697.24770641335
0.5663469999999998,36529.68036528342
0.5664559999999998,36363.636363618345
0.5665659999999999,36529.68036528342
0.566676,36697.24770641335
0.566785,36363.636363636695
0.566894,36036.03603604505
0.567005,36363.636363636695
0.567116,36199.09502262006
0.567225,35874.43946188772
0.567337,36199.09502262006
0.567448,36199.09502262006
0.567558,35874.43946188772
0.567669,35714.2857142854
0.567781,36036.03603602703
0.567893,36036.03603602703
0.568003,35555.5555555507
0.568115,35714.2857142854
0.5682280000000001,35874.43946188772
0.568339,35555.5555555507
0.568451,35714.2857142854
0.5685640000000001,35714.2857142854
0.568675,35555.5555555507
0.5687880000000001,35398.230088503646
0.5689000000000001,35398.230088503646
0.569014,35555.5555555507
0.569126,35398.230088486256
0.569239,35242.29074890222
0.5693520000000001,35398.230088503646
0.569466,35242.29074890222
0.569578,35242.29074890222
0.569693,35242.29074890222
0.569805,35087.719298244694
0.56992,35242.29074890222
0.570033,35087.71929826178
0.570147,35087.71929826178
0.5702609999999999,35242.29074890222
0.5703749999999999,35242.29074890222
0.5704879999999999,34934.49781660552
0.5706019999999998,34934.49781660552
0.5707169999999998,35087.71929826178
0.5708309999999998,35087.71929826178
0.5709449999999997,34934.49781660552
0.5710589999999997,34934.49781660552
0.5711739999999996,35087.71929826178
0.5712879999999996,34782.608695659364
0.5714019999999995,34632.034632037445
0.5715179999999995,34782.608695659364
0.5716329999999995,34782.608695659364
0.5717479999999995,34632.034632037445
0.5718629999999995,34632.034632037445
0.5719789999999995,34482.758620688175
0.5720939999999994,34334.763948492146
0.5722109999999995,34334.763948492146
0.5723269999999995,34334.763948492146
0.5724439999999995,34334.763948492146
0.5725599999999995,34188.03418802433
0.5726769999999995,34042.553191491505
0.5727939999999996,33898.305084759704
0.5729119999999995,34188.03418804055
0.5730299999999995,34334.763948492146
0.5731459999999995,34042.553191491505
0.5732629999999995,34042.553191491505
0.5733809999999995,33613.445378141165
0.6895939999999996,45977.011494250895
0.6896899999999996,50955.414012714915
0.6897679999999996,50314.46540879863
0.6898469999999997,49689.440993799086
0.6899269999999996,49382.71604938409
0.6900079999999996,48192.7710843375
0.6900889999999996,47337.27810651596
0.6901739999999996,47337.27810651596
0.6902579999999996,46511.627906990274
0.6903429999999996,46511.627906990274
0.6904299999999995,45714.28571427625
0.6905149999999995,45977.011494250895
0.6906049999999996,45977.011494250895
0.6906889999999996,44692.737430157555
0.6907789999999996,44943.820224716204
0.6908679999999996,32388.6639676117
0.6909569999999996,29520.295202949717
0.6911149999999996,26755.85284280496
0.6923539999999997,33195.02074688153
0.6924969999999997,41237.11340205601
0.6925949999999997,41025.64102565255
0.6926909999999997,40816.32653061766
0.6927899999999997,41450.777202072815
0.6928869999999997,40000.0000000044
0.6929829999999997,39800.99502487429
0.6930869999999997,40609.137055837
0.6931839999999997,39603.96039603265
0.6932839999999997,40201.00502511346
0.6933859999999997,40816.32653061766
0.6934829999999997,40000.0000000044
0.6935819999999997,39215.68627451327
0.6936829999999997,39215.68627451327
0.6937859999999997,39800.99502487429
0.6938869999999997,39800.99502487429
0.6939869999999997,39603.96039603265
0.6940879999999997,39408.86699506142
0.6941889999999997,39408.86699506142
0.6942909999999998,39408.86699506142
0.6943919999999998,39408.86699506142
0.6944939999999998,39408.86699506142
0.6945949999999999,39215.68627449193
0.6946969999999999,39024.390243900394
0.6947989999999999,38834.95145632417
0.6949019999999999,38647.34299517707
0.6950049999999999,38647.34299517707
0.6951089999999999,39215.68627451327
0.6952119999999998,38834.951456303235
0.6953129999999998,37914.69194311498
0.6954179999999999,38095.238095230205
0.6955239999999999,39215.68627451327
0.6956279999999999,39408.86699508297
0.6957279999999999,38095.238095250344
0.6958309999999999,30075.187969926115
0.6959379999999998,27491.40893470401
0.6960969999999999,34188.03418802433
0.6962289999999999,38277.51196171979
0.6963309999999999,37037.03703703807
0.6964379999999999,38095.238095230205
0.6965469999999999,38834.951456303235
0.6966479999999999,37914.69194311498
0.696753,37558.685446006086
0.696859,37735.849056605555
0.696966,37558.685446006086
0.697071,37735.849056605555
0.697179,37735.849056605555
0.697283,33333.33333333084
0.697391,29962.54681647747
0.697523,25078.3699059594
0.697658,11379.800853484916
0.7092499999999999,8724.100327153223
1.053299,29411.764705900958
1.053478,43478.2608695742
1.0535709999999998,43243.24324321946
1.0536619999999999,42328.042328043506
1.053756,42105.26315791414
1.0538509999999999,41666.66666667318
1.0539459999999998,41666.66666667318
1.0540429999999998,41666.66666667318
1.0541379999999998,41025.64102565255
1.0542349999999998,40609.137055837
1.0543329999999997,40609.137055837
1.0544319999999998,40816.326530640785
1.0545299999999997,40609.137055837
1.0546279999999997,40201.00502511346
1.0547269999999997,39800.99502489627
1.0548269999999997,39800.99502489627
1.0549279999999996,39800.99502489627
1.0550279999999996,39603.96039607618
1.0551289999999995,39408.86699508297
1.0552299999999994,39215.68627449193
1.0553319999999995,39215.68627449193
1.0554339999999995,39024.390243900394
1.0555359999999996,39024.390243900394
