Time,Frequency
7e-05,56338.028169014084
0.00014,55555.55555555554
0.000212,55555.55555555554
0.000284,55172.41379310345
0.00035600000000000003,54794.5205479452
0.000429,54421.768707482996
0.0005020000000000001,54054.05405405409
0.000576,53691.27516778526
0.00065,53333.33333333335
0.000725,52980.13245033113
0.0007999999999999999,52631.57894736842
0.0008759999999999999,52287.581699346396
0.0009519999999999999,51612.90322580646
0.001029,51282.05128205132
0.001107,50955.414012738845
0.0011849999999999999,50314.46540880501
0.001264,49689.44099378885
0.001344,49382.71604938277
0.0014249999999999998,49079.75460122701
0.0015059999999999997,48484.84848484849
0.0015879999999999998,47904.19161676645
0.0016709999999999997,47619.04761904757
0.0017549999999999998,47619.04761904757
0.001839,47337.27810650891
0.001923,47058.82352941182
0.002008,46783.625730994114
0.002093,46242.77456647399
0.002179,45977.01149425296
0.002266,45977.01149425296
0.0023529999999999996,45714.28571428576
0.0024399999999999995,45454.54545454547
0.0025279999999999994,45454.54545454547
0.0026159999999999994,45197.74011299433
0.0027039999999999994,44692.737430167625
0.0027929999999999995,44692.737430167625
0.0028829999999999993,44692.737430167625
0.0029719999999999994,44198.89502762437
0.003061999999999999,43956.043956043985
0.003152999999999999,43956.043956043985
0.003243999999999999,43956.043956043985
0.003334999999999999,43715.84699453552
0.003425999999999999,43478.26086956519
0.003517999999999999,43478.26086956519
0.003609999999999999,43243.24324324318
0.003701999999999999,43010.75268817195
0.0037949999999999993,43010.75268817205
0.0038879999999999995,42780.74866310158
0.003980999999999999,42553.191489361554
0.004075,42553.191489361554
0.004169,42553.191489361554
0.004263,42328.04232804234
0.004357000000000001,42328.04232804234
0.004452,42105.263157894726
0.0045460000000000006,41884.81675392685
0.004642,41884.81675392685
0.004737,41884.81675392685
0.004833,41884.81675392685
0.004927999999999999,41666.66666666678
0.005023999999999999,41450.777202072626
0.005119999999999999,41450.777202072626
0.0052169999999999985,41450.777202072626
0.005312999999999998,41237.113402061914
0.005409999999999998,41237.113402061914
0.005506999999999998,41237.113402061914
0.005603999999999998,41237.113402061914
0.005700999999999998,41237.113402061914
0.005797999999999998,41237.113402061914
0.0058949999999999975,41237.113402061914
0.005991999999999997,41237.113402061914
0.006088999999999997,41025.64102564105
0.006185999999999997,41025.64102564105
0.006283999999999997,41237.113402061914
0.006380999999999997,41237.113402061914
0.006477999999999997,41237.113402061914
0.006574999999999997,41237.113402061914
0.0066719999999999965,41025.64102564105
0.006768999999999996,40816.32653061225
0.006866999999999996,40816.32653061225
0.006964999999999996,40609.137055837535
0.007062999999999996,40816.32653061225
0.0071619999999999965,40404.04040404035
0.007258999999999996,40201.00502512555
0.007359999999999997,40609.137055837535
0.007457999999999997,20202.02020202022
0.123724,51282.05128205474
0.123801,50632.91139240779
0.12387999999999999,50632.91139240779
0.12395899999999999,45454.54545454659
0.12403799999999998,21505.376344086177
0.12413499999999998,22535.211267606002
0.12440999999999998,50632.91139240779
0.12448999999999998,50314.46540880741
0.12456799999999997,49689.44099379052
0.12464899999999997,49382.71604938409
0.12472899999999996,49079.75460122805
0.12481099999999996,49079.75460122805
0.12489199999999996,48780.48780487467
0.12497399999999996,48484.84848484485
0.12505599999999997,48484.84848484893
0.12513899999999997,48484.84848484893
0.12522099999999997,48192.7710843375
0.12530399999999997,47904.19161676633
0.12538699999999997,47904.19161676633
0.12547099999999997,47904.19161676633
0.12555399999999997,47337.27810650818
0.12563799999999997,47337.27810650818
0.12572299999999997,47337.27810650818
0.12580699999999997,47337.27810650818
0.12589199999999998,47058.8235294108
0.12597599999999998,46783.62573099293
0.12606199999999998,46783.62573099293
0.12614699999999998,46783.62573099293
0.12623299999999998,46783.62573099293
0.12631799999999999,46511.62790697526
0.126404,46242.77456647225
0.12649,45977.011494250895
0.126577,45977.011494250895
0.126664,46242.77456647225
0.126751,45977.011494250895
0.126837,45977.011494250895
0.126925,20151.133501259017
0.127011,17429.193899781567
0.12732200000000002,34042.55319148748
0.12747000000000003,46242.77456647225
0.12755700000000003,45714.2857142835
0.12764300000000003,45197.740112991676
0.12773200000000004,45197.740112991676
0.12782000000000004,44943.820224716204
0.12790900000000005,44943.820224716204
0.12799800000000006,44692.73743016448
0.12808700000000006,44444.44444444111
0.12817700000000007,44198.895027620776
0.12826700000000008,44444.44444444111
0.12835800000000008,44198.895027620776
0.1284470000000001,43956.043956040216
0.1285390000000001,44198.895027620776
0.1286290000000001,43956.043956040216
0.1287200000000001,43956.043956040216
0.12881100000000012,43715.84699453158
0.12890200000000013,43478.26086956108
0.12899400000000014,43478.26086956108
0.12908600000000015,43478.26086956108
0.12917800000000015,43478.26086956108
0.12927000000000016,43243.243243238925
0.12936200000000017,43243.243243238925
0.12945500000000018,43243.243243238925
0.1295470000000002,43243.243243238925
0.1296400000000002,43243.243243238925
0.1297320000000002,43010.75268816754
0.12982500000000022,43010.75268816754
0.12991800000000023,43010.75268816754
0.13001100000000024,43010.75268816754
0.13010400000000025,43010.75268816754
0.13019700000000026,43010.75268816754
0.13029000000000027,43010.75268816754
0.13038300000000028,42780.74866309692
0.1304760000000003,42553.19148935684
0.1305700000000003,43010.75268816754
0.1306640000000003,43010.75268816754
0.13075600000000032,42780.74866309692
0.13085000000000033,42780.74866309692
0.13094300000000034,42780.74866309692
0.13103700000000035,43010.75268816754
0.13113000000000036,42553.19148935684
0.13122300000000037,42780.74866309692
0.13131800000000038,43010.75268816754
0.1314100000000004,42328.04232803729
0.1315040000000004,37735.849056600615
0.1315990000000004,28673.835125447877
0.2212190000000004,57142.857142856636
0.2212880000000004,55944.05594406515
0.2213590000000004,55172.413793111635
0.22143100000000038,54794.52054795291
0.22150400000000037,54421.76870749022
0.22157700000000036,54054.05405406082
0.22165100000000035,53691.27516779155
0.22172500000000034,53333.33333333921
0.22180000000000033,52980.13245033657
0.22187500000000032,52631.57894737345
0.22195100000000031,52287.58169935102
0.2220270000000003,51948.05194805617
0.2221040000000003,51612.90322581029
0.2221810000000003,50955.414012741945
0.2222590000000003,50632.91139240779
0.22233800000000029,50314.46540880741
0.22241700000000028,49689.44099379052
0.22249700000000028,49382.71604938409
0.22257800000000028,49079.75460122805
0.22265900000000027,48780.4878048788
0.22274100000000027,48780.4878048788
0.22282300000000027,48484.84848484893
0.22290500000000027,48192.7710843375
0.22298800000000027,47904.19161676633
0.22307100000000027,47619.047619047196
0.22315500000000027,47619.047619047196
0.22323900000000027,47337.27810650818
0.22332300000000027,47058.8235294108
0.22340800000000027,46783.62573099293
0.22349300000000027,46511.62790697526
0.22357900000000028,46242.77456647225
0.22366500000000028,45977.011494250895
0.22375200000000028,45977.011494250895
0.2238390000000003,45714.2857142835
0.2239260000000003,45454.545454543004
0.2240140000000003,45454.545454543004
0.2241020000000003,45197.740112991676
0.2241900000000003,44943.820224716204
0.2242790000000003,44692.73743016448
0.22436800000000032,44444.44444444111
0.22445800000000032,44444.44444444111
0.22454800000000033,44198.895027620776
0.22463800000000034,43956.043956040216
0.22472900000000035,43956.043956040216
0.22482000000000035,43715.84699453158
0.22491100000000036,43478.26086956108
0.22500300000000037,43478.26086956108
0.22509500000000038,43243.243243238925
0.2251870000000004,43010.75268816754
0.2252800000000004,43010.75268816754
0.2253730000000004,42780.74866309692
0.22546600000000042,42553.19148935684
0.22556000000000043,42553.19148935684
0.22565400000000044,42553.19148935684
0.22574800000000045,42328.04232803729
0.22584200000000046,42105.26315788953
0.22593700000000047,42105.26315788953
0.22603200000000048,42105.26315788953
0.2261270000000005,42105.26315788953
0.2262220000000005,41884.81675392133
0.22631700000000052,41884.81675392133
0.22641300000000053,41884.81675392133
0.22650800000000054,41666.666666661135
0.22660400000000055,41666.666666661135
0.22670000000000057,41450.77720206685
0.22679600000000058,41450.77720206685
0.2268930000000006,41450.77720206685
0.2269890000000006,41450.77720206685
0.22708600000000062,41450.77720206685
0.22718200000000063,41237.11340205601
0.22727900000000065,41450.77720206685
0.22737600000000066,41450.77720206685
0.22747200000000067,41450.77720206685
0.2275690000000007,41450.77720206685
0.2276650000000007,41237.11340205601
0.22776200000000071,41237.11340205601
0.22785900000000073,41025.64102564087
0.22795600000000074,40816.32653061766
0.22805400000000073,40816.32653061766
0.22815200000000072,40609.13705584272
0.2282500000000007,40201.00502513028
0.2283490000000007,19704.433497537444
0.33161900000000066,48484.84848485709
0.33170300000000064,48192.7710843375
0.33178400000000063,47337.27810651596
0.33186900000000064,47337.27810651596
0.3319530000000006,46783.62573100052
0.3320380000000006,46783.62573100052
0.3321240000000006,46511.62790697526
0.3322090000000006,45977.011494250895
0.3322960000000006,45714.28571429075
0.3323830000000006,45714.28571429075
0.33247100000000057,45714.28571429075
0.3325580000000006,45454.545454557345
0.33264600000000055,45197.74011299876
0.33273400000000053,44943.820224716204
0.33282300000000054,45197.74011299876
0.33291200000000054,45197.74011299876
0.3330000000000005,44692.73743017141
0.3330890000000005,44692.73743017141
0.3331790000000005,44692.73743017141
0.3332680000000005,44444.44444445482
0.3333580000000005,44444.44444445482
0.33344800000000047,44444.44444445482
0.33353800000000045,44444.44444445482
0.3336280000000004,44198.89502762755
0.3337180000000004,43956.043956040216
0.3338090000000004,44198.89502762755
0.3339000000000004,44198.89502762755
0.3339900000000004,43956.043956040216
0.3340810000000004,43956.043956040216
0.3341720000000004,43715.84699453821
0.3342630000000004,43715.84699453821
0.3343550000000004,43956.043956040216
0.3344460000000004,43715.84699453821
0.3345370000000004,43478.2608695742
0.3346290000000004,43478.2608695742
0.3347210000000004,43715.84699453821
0.33481300000000036,43478.26086956108
0.33490400000000037,43243.24324324541
0.3349970000000004,43478.2608695742
0.33508900000000036,43243.24324324541
0.33518100000000034,43243.24324324541
0.33527400000000035,43243.24324324541
0.33536600000000033,43010.75268816754
0.33545900000000034,43010.75268816754
0.33555200000000035,42780.748663103266
0.33564500000000036,42780.748663103266
0.33573900000000034,42553.19148935684
0.33583200000000035,42328.042328043506
0.33592700000000036,42553.191489369405
0.33602100000000035,42328.042328043506
0.33611500000000033,42328.042328043506
0.33621000000000034,42553.191489369405
0.3363040000000003,42328.042328043506
0.3363980000000003,41884.81675392742
0.3364930000000003,42105.263157901834
0.3365890000000003,42105.263157901834
0.3366830000000003,41884.81675392742
0.3367790000000003,42105.26315788953
0.3368740000000003,41884.81675392742
0.3369690000000003,41884.81675392742
0.3370650000000003,41666.666666661135
0.3371600000000003,41666.666666661135
0.3372570000000003,42105.26315788953
0.3373520000000003,41450.777202072815
0.33744700000000033,41450.777202072815
0.3375450000000003,41884.81675392742
0.33764000000000033,41884.81675392742
0.3377360000000003,41666.666666661135
0.3378310000000003,41450.777202072815
0.33792800000000034,36697.2477064227
0.3380240000000003,36866.359447000745
0.33814600000000034,17467.24890829641
0.5707950000000004,65040.6504065124
0.5708560000000004,63999.99999997863
0.5709180000000004,63492.06349202797
0.5709810000000004,62992.12598425781
0.5710440000000004,61538.46153847883
0.5711080000000004,60606.06060605097
0.5711740000000004,59701.492537327926
0.5712400000000004,58823.529411801916
0.5713080000000004,57971.01449276561
0.5713760000000003,56737.58865245903
0.5714460000000003,55944.055944054286
0.5715170000000004,54794.52054795291
0.5715890000000003,53333.33333333921
0.5716630000000004,52287.58169936051
0.5717390000000003,51612.90322580105
0.5718160000000003,51282.05128203649
0.5718940000000003,50632.91139240779
0.5719720000000004,50000.00000001938
0.5720520000000003,49689.440993799086
0.5721320000000003,49079.7546012197
0.5722130000000003,48484.84848482446
0.5722950000000003,47904.19161675837
0.5723780000000004,47058.8235294108
0.5724620000000004,46511.62790696025
0.5725480000000004,46242.774566479675
0.5726340000000004,45714.28571430525
0.5727210000000004,45197.74011299876
0.5728090000000003,44692.737430157555
0.5728980000000004,44198.89502762755
0.5729880000000004,43715.84699455147
0.5730790000000003,43478.2608695742
0.5731710000000003,43010.75268816754
0.5732630000000003,42553.19148934427
0.5733570000000003,42328.042328043506
0.5734510000000004,41884.816753939594
0.5735460000000003,41450.777202072815
0.5736420000000003,41237.11340205601
0.5737390000000003,41025.64102562919
0.5738360000000003,40609.137055837
0.5739340000000004,40404.040404056635
0.5740330000000003,40201.005025135884
0.5741320000000003,40000.0000000044
0.5742320000000003,39800.99502487429
0.5743320000000003,39408.86699506142
0.5744330000000003,39408.86699506142
0.5745350000000004,39408.86699506142
0.5746360000000004,39024.390243900394
0.5747380000000004,38834.95145632417
0.5748410000000004,38647.34299517707
0.5749440000000003,38277.51196171979
0.5750480000000003,38277.51196171979
0.5751530000000004,38461.53846154106
0.5752570000000004,38277.51196171979
0.5753610000000003,37914.69194311498
0.5754660000000004,37914.69194311498
0.5755720000000004,37914.69194311498
0.5756770000000004,37735.849056585794
0.5757830000000005,37735.849056585794
0.5758890000000005,37735.849056585794
0.5759950000000006,37558.685446006086
0.5761010000000006,37383.177570104555
0.5762080000000006,37383.177570104555
0.5763150000000006,37383.177570104555
0.5764220000000005,37383.177570104555
0.5765290000000005,37383.177570104555
0.5766360000000005,37209.302325587414
0.5767430000000004,37037.03703703807
0.5768510000000004,37037.03703703807
0.5769590000000004,36866.359447000745
0.5770670000000004,36866.359447000745
0.5771760000000005,37037.03703703807
0.5772840000000005,36866.359447000745
0.5773920000000005,36866.359447000745
0.5775010000000005,37037.03703703807
0.5776090000000005,36866.359447000745
0.5777170000000005,36866.359447000745
0.5778260000000005,36866.359447000745
0.5779340000000005,36866.359447000745
0.5780430000000005,37037.03703703807
0.5781510000000005,36866.359447000745
0.5782590000000005,36866.359447000745
0.5783680000000005,37209.302325587414
0.5784760000000005,37209.302325587414
0.5785830000000005,37209.302325587414
0.5786910000000005,37558.685446006086
0.5787980000000005,37383.177570085165
0.5789040000000005,36866.359447000745
0.5790120000000005,36866.359447000745
0.5791210000000006,37383.177570085165
0.5792290000000005,28880.866425984153
0.5793350000000006,26058.631921819248
0.5795060000000006,14134.2756183729
0.5796420000000007,10738.255033557109
0.5895870000000006,9291.52148664343
0.5899160000000007,8978.675645342562
0.6418650000000007,59701.49253727846
0.6419400000000007,59701.49253727846
0.6419990000000008,58394.160583918696
0.6420740000000008,63999.99999997863
0.6421360000000008,63999.99999997863
0.6421990000000009,63999.99999997863
0.6422610000000009,62992.12598425781
0.6423240000000009,62500.00000004591
0.6423880000000008,61538.46153847883
0.6424520000000008,60150.37593982713
0.6425180000000008,59259.259259260914
0.6425850000000008,58394.16058396602
0.6426530000000008,57553.95683453228
0.6427220000000008,56737.58865245903
0.6427920000000008,56338.02816897976
0.6428630000000009,55944.055944054286
0.6429340000000009,55172.4137931222
0.6430060000000009,54421.76870747995
0.6430790000000008,53691.275167761545
0.6431530000000009,53333.333333299735
0.6432280000000009,52631.578947354225
0.643303000000001,51948.05194805617
0.643380000000001,51282.05128203649
0.643457000000001,50632.91139237222
0.643536000000001,50632.91139237222
0.643615000000001,50314.46540879863
0.6436940000000011,49689.440993799086
0.6437740000000011,49079.7546012197
0.6438550000000011,48780.487804862285
0.6439370000000011,48192.7710843375
0.6440190000000011,47619.047619062934
0.6441030000000011,47337.27810651596
0.6441870000000011,47058.8235294108
0.6442720000000011,46783.62573098533
0.6443570000000011,46242.774566479675
0.6444430000000011,45714.28571430525
0.644530000000001,45454.545454557345
0.644618000000001,45197.74011299876
0.644706000000001,44943.820224716204
0.644795000000001,44692.737430157555
0.644884000000001,44444.44444442741
0.644974000000001,44198.89502762755
0.6450640000000011,43956.04395606703
0.645155000000001,43715.84699455147
0.645246000000001,43478.2608695742
0.645338000000001,43478.2608695742
0.645430000000001,43243.24324324541
0.6455220000000009,42780.74866309057
0.6456150000000009,42780.74866309057
0.645709000000001,42780.74866309057
0.645802000000001,42328.042328043506
0.645896000000001,42328.042328043506
0.645991000000001,42328.042328043506
0.646085000000001,42105.26315791414
0.646180000000001,41884.816753939594
0.6462750000000009,41666.66666667318
0.6463710000000009,41666.66666667318
0.6464670000000009,41666.66666667318
0.6465630000000009,41450.777202072815
0.6466590000000009,41237.11340205601
0.6467560000000009,41237.11340205601
0.6468530000000009,41237.11340205601
0.6469500000000009,41025.64102562919
0.6470470000000009,40816.326530594546
0.647145000000001,40816.326530594546
0.647243000000001,41025.64102562919
0.647341000000001,40816.32653061766
0.6474380000000011,40609.137055837
0.647537000000001,40816.326530594546
0.6476350000000011,40609.137055837
0.6477330000000011,40609.137055837
0.6478320000000011,40609.137055837
0.6479300000000011,40404.040404056635
0.6480290000000011,40609.137055837
0.648128000000001,40816.326530594546
0.6482260000000011,40609.137055837
0.6483240000000011,40609.137055837
0.6484230000000011,40816.326530594546
0.6485210000000011,40816.326530594546
0.6486190000000012,41025.64102562919
0.6487170000000012,41025.64102562919
0.6488140000000012,41025.64102562919
0.6489120000000013,41237.11340205601
0.6490090000000013,41025.64102562919
0.6491060000000013,41237.11340205601
0.6492040000000013,41666.66666667318
0.6493000000000013,41666.66666667318
0.6493960000000013,41450.777202072815
0.6494920000000013,41237.11340205601
0.6495890000000013,41450.777202072815
0.6496860000000013,41237.11340205601
0.6497820000000013,40609.137055837
0.6498800000000013,40609.137055837
0.6499790000000013,36036.03603602703
0.6500770000000013,29962.54681647747
0.7238970000000013,25078.3699059594
0.7241280000000013,49079.7546012197
0.7242160000000013,58394.160583918696
0.7242910000000014,64516.12903225131
0.7243530000000014,63999.99999997863
0.7244150000000014,62499.999999991705
0.7244780000000014,61068.70229007996
0.7245430000000014,59701.492537327926
0.7246090000000014,59259.259259260914
0.7246770000000013,58823.529411753894
0.7247440000000014,57971.01449276561
0.7248130000000014,57553.95683453228
0.7248820000000014,56737.58865245903
0.7249520000000014,56338.02816897976
0.7250230000000014,55555.55555554283
0.7250940000000015,54794.52054795291
0.7251670000000014,54421.76870747995
0.7252400000000014,53691.275167761545
0.7253140000000015,52980.13245032683
0.7253890000000015,52287.58169936051
0.7254650000000015,51612.90322580105
0.7255420000000015,51282.05128203649
0.7256200000000015,50955.414012714915
0.7256980000000015,50632.91139237222
0.7257770000000016,49999.99999998469
0.7258560000000016,49382.71604938409
