Time,Frequency
7.9e-05,50632.91139240507
0.000158,50000.00000000001
0.000237,49382.71604938273
0.000318,49079.75460122701
0.00039899999999999994,48484.84848484849
0.00048099999999999993,47904.19161676647
0.0005639999999999999,47337.27810650888
0.0006479999999999999,46783.62573099414
0.0007329999999999999,45714.28571428571
0.000819,44198.8950276243
0.000908,43243.24324324323
0.001,42780.74866310163
0.001093,42553.19148936175
0.001187,42105.26315789477
0.0012809999999999998,41884.81675392671
0.0013769999999999998,41666.66666666664
0.0014719999999999998,41450.77720207253
0.0015689999999999999,41450.77720207253
0.0016649999999999998,41237.11340206182
0.001762,41025.64102564101
0.001859,41025.64102564105
0.001957,41025.64102564105
0.002054,40609.137055837535
0.002152,40404.04040404035
0.002251,40609.137055837535
0.00235,40609.137055837535
0.002448,40404.04040404035
0.0025470000000000002,40201.00502512564
0.0026460000000000003,40000.000000000065
0.002746,39800.995024875665
0.002846,39603.96039603962
0.002947,39800.995024875665
0.003048,39800.995024875665
0.0031479999999999998,39603.96039603962
0.0032489999999999997,39603.96039603962
0.0033499999999999997,39603.96039603962
0.0034509999999999996,39408.866995073884
0.0035519999999999996,39024.39024390246
0.0036539999999999997,38834.95145631076
0.0037569999999999995,38834.95145631068
0.0038599999999999993,39024.39024390246
0.0039629999999999995,39024.39024390254
0.004064999999999999,39024.39024390254
0.004167999999999999,39024.39024390254
0.004269999999999999,38834.95145631076
0.004372999999999998,38834.95145631076
0.004475999999999998,38647.342995169136
0.004578999999999998,38461.53846153849
0.004682999999999998,38461.53846153849
0.004786999999999998,38277.51196172249
0.004890999999999998,38277.51196172249
0.004995999999999998,38461.53846153849
0.005099999999999998,38461.53846153849
0.005203999999999998,38277.51196172249
0.005307999999999998,38095.23809523808
0.005412999999999998,38095.23809523808
0.005517999999999998,38277.51196172249
0.005622999999999998,38277.51196172249
0.005726999999999998,38095.23809523808
0.005831999999999998,38277.51196172249
0.005936999999999998,38277.51196172249
0.006040999999999998,38277.51196172249
0.006145999999999998,38277.51196172249
0.006249999999999998,38095.23809523808
0.006354999999999998,38277.51196172249
0.006459999999999998,38277.51196172249
0.006563999999999998,38095.23809523808
0.006668999999999998,38277.51196172249
0.006773999999999998,38277.51196172249
0.006877999999999998,38095.23809523808
0.006982999999999998,38277.51196172249
0.007087999999999998,38277.51196172249
0.007191999999999998,38277.51196172249
0.007296999999999998,38461.53846153849
0.007400999999999998,38461.53846153849
0.007504999999999998,38277.51196172249
0.007608999999999998,38277.51196172233
0.007713999999999998,38095.23809523792
0.007817999999999999,37735.84905660371
0.007923999999999999,30418.25095057042
0.008029999999999999,19184.652278177506
0.008186999999999998,14814.8148148148
0.042269999999999995,20460.35805626622
0.04246199999999999,15267.17557251918
0.04266099999999999,11379.800853485029
0.04298599999999999,11764.70588235294
0.04336399999999999,10638.297872340487
0.04366599999999999,8298.755186721995
0.04411599999999999,10269.576379974302
0.04462999999999999,11034.482758620637
0.04489499999999999,8583.690987124442
0.04535499999999999,9049.773755656079
0.11702099999999999,39215.686274510605
0.11714299999999998,48484.84848484893
0.11722499999999998,47337.27810650818
0.11730799999999998,47619.047619047196
0.11739399999999998,47904.19161676633
0.11747599999999998,46783.62573099293
0.11756099999999998,46511.62790697526
0.11764699999999999,46242.77456647225
0.11773299999999999,45977.011494250895
0.11782,45714.2857142835
0.117907,45197.740112991676
0.117995,44943.820224716204
0.11808400000000001,44692.73743016448
0.11817300000000001,44444.44444444111
0.11826300000000002,44198.89502762416
0.11835300000000003,43715.84699453821
0.11844400000000002,43243.24324324541
0.11853600000000002,43243.24324324541
0.11862900000000001,43010.752688173954
0.11872100000000001,42328.042328043506
0.118815,43010.752688173954
0.11891,43478.260869567646
0.119001,42328.042328043506
0.11909399999999999,41666.66666666716
0.11918999999999999,41884.81675392742
0.11928599999999999,42553.19148936312
0.11938099999999999,42780.748663103266
0.11947399999999998,27027.027027027874
0.11956799999999998,27210.884353742542
0.11976999999999997,42780.748663103266
0.11986199999999997,42105.263157895686
0.11995699999999997,41666.66666666716
0.12005199999999996,41666.66666666716
0.12014899999999996,41450.777202072815
0.12149799999999997,11747.430249633115
0.13292399999999996,25723.472668809816
0.13309199999999996,27777.77777777677
0.13323499999999996,25236.593059935974
0.13337999999999997,27586.20689655054
0.13355199999999998,27303.754266210162
0.13366999999999998,26755.852842807442
0.133845,19093.078758949756
0.217462,12678.288431061395
0.217808,9512.48513674188
0.23486,50632.91139240779
0.234937,49382.71604938409
0.235018,48484.84848484893
0.235099,47619.047619047196
0.235183,47337.27810650818
0.235267,46242.77456647225
0.235352,45197.740112991676
0.23544,44198.895027620776
0.23552900000000002,43715.84699453158
0.23562100000000002,43243.243243238925
0.23571200000000003,42553.19148935684
0.23580600000000004,42553.19148935684
0.23590000000000005,41884.81675392133
0.23599400000000006,41666.666666661135
0.23609100000000008,41666.666666661135
0.2361860000000001,41025.64102564087
0.2362830000000001,41450.777202072815
0.2363810000000001,41884.81675392133
0.2364760000000001,41450.77720206685
0.23657200000000012,22598.870056495838
0.23666900000000013,22857.14285714175
0.23692600000000014,42328.04232803729
0.23701900000000015,41237.113402061914
0.23711500000000016,40816.32653061766
0.23721300000000015,40816.32653061766
0.23731100000000013,40201.00502513028
0.23740900000000012,39024.390243905684
0.2375100000000001,38461.53846154106
0.2376140000000001,39215.68627451327
0.2377180000000001,39800.99502487978
0.23781800000000008,39215.68627451327
0.23791900000000007,39215.68627451327
0.23802200000000007,39024.390243905684
0.23812300000000006,38647.342995171886
0.23822700000000005,38834.9514563137
0.23833000000000004,38647.342995171886
0.23843300000000003,38277.51196172487
0.23853700000000003,38095.238095240275
0.23864200000000002,38095.238095240275
0.23874700000000001,38095.238095240275
0.238852,38095.238095240275
0.238957,38095.238095240275
0.239062,37914.69194312995
0.239167,37735.849056605555
0.23927299999999999,37735.849056605555
0.23937899999999998,37735.849056605555
0.23948499999999998,37735.849056605555
0.23959099999999997,37558.68544601098
0.23969699999999997,37383.17757009486
0.23980399999999996,37383.17757009486
0.23991099999999996,37383.17757009486
0.24001799999999995,37383.17757009486
0.24012499999999995,37209.30232558261
0.24023199999999995,37037.03703703807
0.24033999999999994,37209.30232558261
0.24044799999999994,37209.30232558261
0.24055499999999994,37209.30232558261
0.24066299999999993,37209.30232558261
0.24076999999999993,37037.03703703807
0.24087799999999993,37037.03703703807
0.24098599999999992,37037.03703703807
0.24109399999999992,37209.30232558261
0.24120199999999992,37383.17757009486
0.2413089999999999,37037.03703703807
0.2414159999999999,37209.30232558261
0.2415249999999999,37383.17757009486
0.2416309999999999,37037.03703703807
0.2417389999999999,37037.03703703807
0.2418469999999999,36866.35944700546
0.2419549999999999,33613.44537815292
0.2420639999999999,17167.38197424914
0.30222499999999985,25559.105431309275
0.30241799999999985,32921.8106995894
0.30253799999999986,32520.3252032562
0.30266099999999985,36036.03603603604
0.30278399999999983,29197.08029197118
0.30288299999999985,26666.666666669604
0.3030579999999998,35714.2857142854
0.3031829999999998,39999.999999993306
0.30328199999999983,35398.23008849495
0.30338299999999985,35242.29074890222
0.30350799999999983,39215.68627451327
0.3036099999999998,28368.794326240684
0.3037119999999998,22284.122562674205
0.30389199999999983,17278.617710583483
0.3040709999999998,11428.571428570875
0.35804699999999984,24615.384615387327
0.3581969999999998,29304.02930403277
0.3583719999999998,45197.74011299876
0.3584699999999998,50000.00000000204
0.3585489999999998,49382.71604938409
0.3586299999999998,48780.4878048788
0.3587109999999998,47904.19161677429
0.3587939999999998,47619.047619062934
0.35887799999999975,47619.047619062934
0.3589619999999997,46511.627906990274
0.3590459999999997,46242.774566479675
0.3591339999999997,46242.774566479675
0.3592189999999997,45197.74011299876
0.35930699999999965,45197.74011299876
0.35939599999999966,44692.73743017141
0.35948399999999964,44444.44444444111
0.35957499999999964,44198.89502762755
0.35966399999999965,43715.84699453821
0.35975599999999963,43478.26086956108
0.35984699999999964,43010.75268816754
0.35993999999999965,43010.75268816754
0.36003299999999966,42780.748663103266
0.36012599999999967,41666.66666667318
0.36021999999999965,41025.64102564087
0.36031799999999964,41884.81675392742
0.36041499999999965,42105.263157901834
0.36050899999999964,41666.66666667318
0.3606049999999996,41237.113402067815
0.3607009999999996,40609.137055837
0.3607989999999996,40404.04040403398
0.3608979999999996,40816.32653060611
0.3609969999999996,41237.11340205601
0.36109399999999964,40816.32653060611
0.36119099999999965,40404.04040403398
0.36128999999999967,40404.04040403398
0.3613889999999997,40404.04040403398
0.3614879999999997,40404.04040403398
0.3615869999999997,40404.04040403398
0.36168599999999973,40404.04040403398
0.36178499999999975,40404.04040403398
0.36188399999999976,40404.04040403398
0.3619829999999998,40404.04040403398
0.3620819999999998,40404.04040403398
0.3621809999999998,40201.00502512467
0.3622799999999998,40404.04040404531
0.3623799999999998,40201.00502512467
0.3624779999999998,40404.04040403398
0.3625789999999998,40201.00502512467
0.36267599999999983,39800.99502487429
0.3627779999999998,16293.279022402621
0.3905859999999998,31007.751937986843
0.3907269999999998,33613.445378156845
0.3908439999999998,37383.17757009486
0.3909649999999998,42553.19148935684
0.3910579999999998,37383.17757009486
0.3911529999999998,32921.8106995894
0.3912719999999998,36363.636363636695
0.3913959999999998,41025.64102564087
0.3914919999999998,41237.11340205601
0.3915909999999998,36697.2477064227
0.3916859999999998,35874.43946188772
0.3918089999999998,40609.137055837
0.3919089999999998,36036.03603603604
0.3920059999999998,35874.43946188772
0.3921309999999998,35874.43946188772
0.3922289999999998,35087.719298244694
0.39235399999999976,16806.7226890745
0.4906849999999998,21917.80821917783
0.4908879999999998,24464.831804279722
0.4910499999999998,18058.690744919906
0.49121499999999985,16666.666666667345
0.49149299999999985,15267.17557251999
0.4916949999999998,17094.017094018247
0.4920169999999998,32653.061224490433
0.4921629999999998,40816.32653060611
0.4922619999999998,40201.00502512467
0.4923589999999998,40000.0000000044
0.4924609999999998,40609.137055837
0.4925589999999998,39800.99502487429
0.4926579999999998,39603.96039604353
0.4927599999999998,40201.00502512467
0.4928599999999998,39603.96039603265
0.4929589999999998,39408.866995072196
0.49306199999999983,40000.0000000044
0.4931619999999998,39603.96039604353
0.4932619999999998,39215.68627451327
0.4933639999999998,39408.866995072196
0.4934659999999998,39408.866995072196
0.4935669999999998,39024.390243900394
0.4936689999999998,39215.6862745026
0.4937719999999998,39800.99502487429
0.49387299999999984,39024.390243900394
0.49397299999999983,38834.951456303235
0.49407799999999985,39603.96039603265
0.49417899999999987,39408.866995072196
0.4942799999999999,39024.390243900394
0.4943819999999999,39215.6862745026
0.4944849999999999,34934.49781658859
0.4945859999999999,26058.63192182396
0.49471399999999993,24096.38554216875
0.4948929999999999,18518.518518519035
0.546191,15873.015873013985
0.546524,14897.57914338893
0.546695,14814.814814815229
0.547061,16949.152542371878
