Time,Frequency
6.9e-05,56338.02816901409
0.00014,55555.55555555556
0.00021099999999999998,54794.52054794522
0.00028399999999999996,54054.05405405407
0.00035699999999999995,52980.13245033115
0.00043199999999999993,52287.58169934641
0.0005079999999999999,51612.903225806425
0.0005849999999999999,51282.05128205128
0.000663,50632.91139240508
0.0007409999999999999,50000.00000000001
0.0008209999999999999,50000.00000000001
0.0009009999999999999,49689.44099378885
0.0009809999999999999,49079.75460122701
0.0010619999999999998,48780.48780487802
0.0011439999999999998,48484.84848484849
0.0012259999999999999,48192.77108433737
0.0013089999999999998,47619.04761904763
0.0013919999999999998,47058.82352941176
0.0014769999999999998,46783.62573099417
0.0015619999999999998,46511.627906976784
0.0016479999999999997,46242.77456647399
0.0017339999999999996,45714.28571428571
0.0018209999999999997,45197.74011299433
0.0019089999999999997,44943.82022471905
0.0019979999999999998,44692.737430167625
0.002087,44198.89502762437
0.0021769999999999997,43956.043956043985
0.0022679999999999996,43715.84699453552
0.0023589999999999996,43478.26086956519
0.0024509999999999996,43243.24324324318
0.0025429999999999997,42780.74866310158
0.002636,42553.19148936175
0.00273,42553.19148936175
0.0028239999999999997,42328.04232804234
0.0029179999999999996,42105.263157894726
0.0030129999999999996,41884.81675392666
0.0031079999999999997,41884.81675392666
0.003204,41666.666666666686
0.003299,41450.77720207253
0.0033959999999999997,41450.77720207253
0.003492,41237.113402061914
0.0035889999999999997,41025.64102564105
0.0036859999999999996,41025.64102564105
0.0037839999999999996,41025.641025640965
0.0038809999999999995,40816.326530612154
0.003979,40816.32653061225
0.004077,40609.137055837535
0.004175,40609.137055837535
0.004274,40609.137055837535
0.004372,40609.137055837535
0.004471,40609.137055837535
0.004569,40404.04040404035
0.004668,40404.04040404035
0.004767,40404.04040404035
0.0048660000000000005,40404.04040404035
0.004965000000000001,40609.137055837535
0.005064000000000001,40609.137055837535
0.005162000000000001,40201.00502512555
0.005261000000000001,40404.04040404035
0.005361000000000001,40404.04040404035
0.005459000000000001,40201.00502512555
0.0055590000000000014,40404.04040404035
0.005658000000000002,40404.04040404035
0.005757000000000002,40201.00502512555
0.005856000000000002,40201.00502512555
0.005956000000000002,40201.00502512555
0.06234,60606.06060606053
0.062407,54421.768707482515
0.062472,54054.05405405575
0.062554,60150.37593985223
0.06262,58823.5294117659
0.06268699999999999,57971.014492753944
0.06275599999999999,57142.857142856636
0.06282499999999999,56338.0281690128
0.062896,56338.0281690128
0.062967,55555.55555555354
0.063038,54794.52054794249
0.063111,54421.76870747995
0.063184,53691.27516778155
0.06325800000000001,53333.33333332934
0.06333300000000001,52980.13245032683
0.06340800000000002,52287.58169934628
0.06348400000000003,51948.05194805617
0.06356100000000002,51948.05194805617
0.06363800000000001,51282.05128205474
0.06371500000000001,50955.414012741945
0.063794,50955.414012741945
0.063872,50314.46540880741
0.063951,50000.00000000204
0.06403099999999999,49689.44099379052
0.06411099999999999,49689.44099379052
0.06419199999999999,49382.71604938409
0.06427199999999998,48780.4878048788
0.06435399999999998,48780.4878048788
0.06443599999999998,48484.84848484893
0.06451799999999998,47904.19161676633
0.06460099999999998,47619.047619047196
0.06468499999999998,47619.047619047196
0.06476899999999998,47619.047619047196
0.06485299999999998,47337.27810650818
0.06493699999999998,46783.62573099293
0.06502199999999998,46783.62573099293
0.06510799999999999,46783.62573099293
0.06519299999999999,46511.62790697526
0.06527899999999999,46242.77456647225
0.06536499999999999,45977.011494250895
0.065452,45977.011494250895
0.065539,45714.2857142835
0.065626,45714.2857142835
0.06571400000000001,45714.2857142835
0.06580100000000001,45197.740112991676
0.06588900000000002,45197.740112991676
0.06597800000000002,45197.740112991676
0.06606600000000003,44692.73743016448
0.06615500000000003,44692.73743016448
0.06624500000000004,44692.73743016448
0.06633400000000005,44444.44444444111
0.06642400000000005,44444.44444444111
0.06651400000000006,44198.89502762416
0.06660400000000007,44198.89502762416
0.06669500000000006,44198.89502762416
0.06678500000000007,43956.04395604692
0.06687600000000006,43715.84699453821
0.06696700000000005,43956.04395604357
0.06705900000000005,43715.8469945349
0.18838800000000006,54421.76870749022
0.18846100000000005,52980.13245033657
0.18853500000000004,52287.58169935102
0.18861200000000003,51612.90322581029
0.18868800000000002,50632.91139240779
0.18876700000000002,50000.00000000204
0.188846,49079.75460122805
0.188927,48484.84848484893
0.189009,47619.047619047196
0.189092,46511.62790697526
0.189177,45454.545454543004
0.18926400000000002,44943.820224716204
0.18935300000000002,44444.44444444111
0.18944200000000003,43956.043956040216
0.18953300000000003,43956.043956040216
0.18962400000000004,43715.84699453158
0.18971500000000005,43243.243243238925
0.18980700000000006,42780.74866309692
0.18990000000000007,42553.19148935684
0.18999400000000008,42553.19148935684
0.1900880000000001,42328.04232803729
0.1901820000000001,41884.81675392133
0.1902770000000001,41450.77720206685
0.19037300000000013,41025.64102564087
0.19047000000000014,40816.32653061766
0.19056800000000013,40816.32653061766
0.1906660000000001,40609.13705584272
0.1907640000000001,40201.00502513028
0.1908630000000001,39800.99502487978
0.19096300000000008,39800.99502487978
0.19106400000000007,39603.96039604353
0.19116400000000006,39215.68627451327
0.19126600000000005,39215.68627451327
0.19136800000000004,39024.390243905684
0.19147000000000003,38647.342995171886
0.19157300000000002,38647.342995171886
0.19167700000000001,38461.53846154106
0.19178,38095.238095240275
0.191885,38095.238095240275
0.19199,37914.69194312995
0.192095,37735.849056605555
0.19220099999999998,37735.849056605555
0.19230699999999998,37558.68544601098
0.19241299999999997,37383.17757009486
0.19251999999999997,37209.30232558261
0.19262699999999996,37037.03703703807
0.19273499999999996,37037.03703703807
0.19284299999999996,37037.03703703807
0.19295099999999996,36866.35944700546
0.19305899999999995,36529.68036529731
0.19316799999999995,36529.68036529731
0.19327799999999995,36697.2477064227
0.19338699999999995,36363.636363636695
0.19349599999999995,36363.636363636695
0.19360699999999995,36363.636363636695
0.19371599999999994,36199.0950226246
0.19382699999999994,36363.636363636695
0.19393699999999994,36199.0950226246
0.19404699999999994,36036.03603603604
0.19415799999999994,36036.03603603604
0.19426899999999994,36036.03603603604
0.19437999999999994,36199.0950226246
0.19449099999999994,36036.03603603604
0.19460099999999994,35874.43946188325
0.19471299999999994,36036.03603603604
0.19482399999999994,36036.03603603604
0.19493499999999994,36036.03603603604
0.19504599999999994,36036.03603603604
0.19515699999999994,35874.43946188325
0.19526799999999994,35874.43946188325
0.19537999999999994,35874.43946188325
0.19549099999999994,35714.2857142854
0.19560299999999994,35555.55555555508
0.29879799999999995,45977.011494265564
0.2988839999999999,44943.82022473022
0.2989719999999999,44943.82022473022
0.2990619999999999,44692.73743017141
0.29914999999999986,43956.043956040216
0.29924099999999987,43956.043956040216
0.2993319999999999,43478.26086956108
0.2994229999999999,43478.26086956108
0.2995159999999999,43243.24324324541
0.2996069999999999,42780.748663103266
0.2997009999999999,42780.748663103266
0.2997939999999999,42553.191489369405
0.2998879999999999,42328.042328043506
0.29998199999999986,42328.042328043506
0.30007699999999987,42105.263157901834
0.30017099999999985,41666.66666667318
0.30026699999999984,41666.66666667318
0.3003629999999998,41666.66666667318
0.3004589999999998,41237.113402067815
0.3005549999999998,41025.64102564087
0.3006529999999998,41237.11340205601
0.3007499999999998,41025.64102564087
0.3008469999999998,40816.32653061766
0.3009449999999998,40816.32653061766
0.3010429999999998,40816.32653061766
0.30114099999999977,40609.137055837
0.30123899999999976,40404.04040403398
0.3013379999999998,40201.00502512467
0.3014369999999998,40000.0000000044
0.3015369999999998,40404.04040404531
0.30163699999999977,40201.00502512467
0.30173499999999975,39999.999999993306
0.30183599999999977,14234.875444839681
0.39949099999999976,28776.97841726614
0.39965499999999976,21978.02197802346
0.39976899999999976,21680.216802170802
0.40001899999999974,40609.137055837
0.4001379999999997,40201.00502512467
0.40021599999999974,39603.96039604353
0.4003369999999997,49079.7546012197
0.4004179999999997,49079.7546012197
0.40049999999999975,48780.4878048788
0.40058099999999974,48192.7710843375
0.40066399999999974,47904.19161677429
0.40074699999999974,47058.82352942617
0.4008309999999997,46511.627906990274
0.4009169999999997,45977.011494265564
0.40100299999999967,45714.28571429075
0.40109099999999964,45714.28571429075
0.40117799999999965,45197.74011299876
0.4012659999999996,44943.820224716204
0.40135499999999963,44444.44444444111
0.40144399999999963,44198.89502762755
0.40153499999999964,43956.043956053625
0.4016249999999996,43243.24324324541
0.4017169999999996,43010.75268816754
0.4018099999999996,43010.75268816754
0.4019029999999996,42553.19148935684
0.40199599999999963,42328.042328043506
0.40209099999999964,42328.042328043506
0.4021849999999996,41884.81675392742
0.40227999999999964,41666.66666667318
0.4023759999999996,41884.81675392742
0.4024719999999996,41666.666666661135
0.4025669999999996,41237.11340205601
0.40266399999999963,41025.64102564087
0.40276099999999965,41025.64102564087
0.40285899999999963,41025.64102564087
0.40295599999999965,41025.64102564087
0.40305399999999963,40816.32653060611
0.40315099999999965,40609.137055837
0.40324999999999966,40404.04040404531
0.40334799999999965,40201.00502512467
0.40344799999999964,40201.00502512467
0.40354699999999966,40201.00502512467
0.40364699999999964,40404.04040403398
0.40374599999999966,40201.00502512467
0.4038449999999997,39800.99502487429
0.40394499999999967,39999.999999993306
0.4040459999999997,39800.99502487429
0.4041449999999997,39800.99502487429
0.4042469999999997,39408.866995072196
0.4043459999999997,39215.68627451327
0.4044499999999997,40000.0000000044
0.4045499999999997,20942.40837696371
0.5036229999999997,29304.02930403277
0.5037909999999997,34042.553191491505
0.5038959999999997,37209.302325587414
0.5040259999999996,47058.8235294108
0.5041109999999996,46511.627906990274
0.5041959999999996,45714.28571430525
0.5042829999999996,45197.74011299876
0.5043709999999996,45197.74011299876
0.5044599999999996,44692.73743018527
0.5045479999999996,29850.746268663963
0.5046389999999995,20887.728459528815
0.5048159999999995,25157.232704399314
0.5050219999999995,32128.51405621784
0.5988299999999995,48780.487804862285
0.5989199999999996,53691.275167761545
0.5989939999999996,53333.333333299735
0.5990689999999996,52980.13245032683
0.5991439999999997,51612.90322580105
0.5992199999999996,50955.414012714915
0.5992989999999997,50955.414012714915
0.5993769999999997,50314.46540879863
0.5994559999999998,49689.440993799086
0.5995359999999997,49079.7546012197
0.5996169999999997,48780.487804862285
0.5996989999999998,48192.7710843375
0.5997809999999998,47337.27810651596
0.5998649999999998,47058.8235294108
0.5999499999999998,46511.627906990274
0.6000349999999998,45977.01149428023
0.6001219999999997,45454.545454557345
0.6002089999999997,44943.820224716204
0.6002979999999997,44692.737430157555
0.6003869999999997,44198.89502762755
0.6004769999999997,43715.84699455147
0.6005679999999997,43478.2608695742
0.6006599999999996,43243.24324324541
0.6007519999999996,42780.74866309057
0.6008449999999996,42553.19148934427
0.6009389999999997,42328.042328043506
0.6010329999999997,41884.816753939594
0.6011279999999997,41884.816753939594
0.6012239999999996,41666.66666667318
0.6013189999999996,40816.32653061766
0.6014159999999996,40816.32653061766
0.6015149999999996,41025.64102562919
0.6016119999999996,40816.326530594546
0.6017099999999996,40201.00502511346
0.6018079999999997,39800.99502487429
0.6019089999999997,40000.0000000044
0.6020089999999997,39603.96039603265
0.6021089999999997,39603.96039603265
0.6022109999999997,39603.96039603265
0.6023109999999997,39408.86699506142
0.6024129999999998,39408.86699506142
0.6025139999999998,38647.342995156345
0.6026159999999998,38647.342995156345
0.6027209999999998,34632.034632020805
0.6028229999999999,34188.03418802433
0.6029519999999999,38647.342995156345
0.603057,38834.951456303235
0.603159,21798.365122615436
0.603263,16913.319238898606
0.786765,52980.13245032683
0.7868400000000001,52287.58169936051
0.7869160000000001,51282.05128203649
0.786993,50314.46540879863
0.7870720000000001,50000.00000001938
0.7871520000000001,49382.71604938409
0.787232,48484.84848482446
0.7873140000000001,48192.77108430527
0.7873970000000001,47619.047619031466
0.7874800000000002,46783.62573098533
0.7875650000000002,46242.774566479675
0.7876510000000002,45714.28571430525
0.7877380000000002,45454.545454557345
0.7878260000000001,45197.74011299876
0.7879140000000001,44444.44444445482
0.7880030000000001,43956.04395606703
0.7880940000000001,43715.84699455147
0.788185,43243.24324324541
0.788277,42780.74866309057
0.78837,42328.042328043506
0.788464,42105.26315791414
0.788559,41884.816753939594
0.788654,41450.777202072815
0.78875,41025.64102562919
0.788847,40816.326530594546
0.788945,40816.326530594546
0.789043,40404.04040403398
0.7891410000000001,40201.005025135884
0.7892410000000001,40201.005025135884
0.78934,40000.0000000044
0.78944,39800.99502487429
0.78954,39408.86699506142
0.789641,39215.68627449193
0.7897430000000001,39215.68627449193
0.7898450000000001,39215.68627449193
0.7899470000000002,39024.390243900394
0.7900490000000002,38834.95145632417
0.7901520000000002,38834.95145632417
0.7902550000000002,38647.34299517707
0.7903580000000001,38277.51196171979
0.7904620000000001,38277.51196171979
0.7905670000000001,38461.53846154106
0.7906710000000001,38277.51196171979
0.7907750000000001,38277.51196171979
0.7908800000000001,38277.51196171979
0.7909840000000001,37735.849056605555
0.7910890000000002,37735.849056605555
0.7911960000000001,37914.69194311498
0.7913010000000001,37558.685446006086
0.7914070000000002,37558.685446006086
0.7915140000000002,37735.849056585794
0.7916200000000002,37209.3023255682
0.7917260000000003,13675.213675212326
0.8897400000000003,23323.615160351063
0.8898290000000003,18348.62385321135
0.8900830000000003,26845.637583890773
0.9935480000000003,45714.28571430525
0.9936350000000003,45197.74011299876
0.9937230000000002,44692.737430157555
0.9938120000000003,44444.44444442741
0.9939020000000003,44198.89502762755
0.9939920000000003,43715.84699455147
0.9940830000000003,43243.24324324541
0.9941750000000003,43010.75268816754
0.9942680000000003,43010.75268816754
0.9943610000000003,42780.74866309057
0.9944540000000003,42553.19148934427
0.9945480000000003,42328.042328043506
0.9946420000000004,41884.816753939594
0.9947370000000003,41884.816753939594
0.9948330000000003,41666.66666667318
0.9949280000000003,41237.11340205601
0.9950250000000003,41237.11340205601
0.9951220000000003,41025.64102562919
0.9952190000000003,40816.326530594546
0.9953170000000003,40609.137055837
0.9954150000000004,40609.137055837
0.9955140000000003,40816.326530594546
0.9956120000000004,39999.9999999822
0.9957100000000004,39800.99502487429
0.9958120000000005,40000.0000000044
0.9959110000000004,39408.86699506142
0.9960120000000005,31249.999999995853
0.9961140000000005,15748.031496064452
1.1972520000000004,54054.05405404054
1.1973330000000004,59259.259259260914
1.1974000000000005,58394.160583918696
1.1974680000000004,57142.85714284531
1.1975370000000005,55944.055944054286
1.1976080000000004,54794.52054795291
1.1976800000000005,53691.27516780155
1.1977540000000004,52980.13245032683
1.1978290000000005,52287.58169932257
1.1979050000000004,50955.414012678884
1.1979820000000005,50632.91139237222
1.1980620000000006,51612.90322576408
1.1981400000000006,50632.91139237222
1.1982170000000008,49689.44099376482
1.1982980000000008,49079.754601186265
1.1983780000000008,48484.84848485709
1.1984610000000009,48192.771084369735
1.1985430000000008,47337.278106547055
1.1986270000000008,47058.82352947227
1.1987120000000007,28469.750889682175
1.1987970000000006,28469.750889682175
1.1989930000000006,45454.545454557345
1.1990780000000005,44444.44444442741
1.1991690000000006,44444.44444442741
1.1992580000000006,43243.24324321946
1.1993490000000007,43010.75268816754
1.1994430000000007,42328.042328043506
1.1995350000000007,41666.66666667318
1.1996320000000007,42105.26315791414
1.1997270000000007,41666.66666667318
1.1998220000000006,41237.11340205601
1.1999190000000006,41025.64102565255
1.2000160000000006,40816.326530640785
1.2001140000000006,40404.040404056635
1.2002120000000005,40000.0000000044
1.2003120000000005,40000.0000000044
1.2004120000000005,39800.99502489627
1.2005120000000005,39408.86699508297
1.2006130000000004,39215.68627449193
1.2007150000000004,39024.390243900394
1.2008170000000005,38834.95145632417
1.2009200000000004,38647.342995156345
1.2010230000000004,38461.53846149999
1.2011270000000005,38461.53846149999
1.2012310000000006,38277.511961699456
1.2013350000000007,38095.238095230205
1.2014400000000007,37914.69194313493
1.2015450000000008,37735.84905662532
1.2016510000000007,37914.69194313493
1.2017570000000006,37735.849056585794
1.2018620000000007,37383.17757006577
1.2019690000000007,37558.685446006086
1.2020760000000008,37558.685446006086
1.2021820000000008,37209.3023255682
1.2022890000000008,37383.177570104555
1.2023970000000008,37209.30232560663
1.2025030000000008,37037.03703703807
1.2026120000000007,37209.3023255682
1.2027190000000008,37209.3023255682
1.2028270000000008,37037.03703703807
1.2029340000000008,37037.03703703807
1.2030430000000008,37037.03703703807
1.2031500000000008,36866.35944701961
1.2032590000000007,36866.35944701961
1.2033670000000007,36697.24770645073
1.2034760000000007,36363.63636365505
1.2035850000000006,36036.03603604505
1.2036960000000005,36697.24770641335
1.2038070000000005,26578.07308969157
1.4124780000000006,54794.52054795291
1.4125500000000006,54054.05405412164
1.4126240000000005,52980.13245032683
1.4126980000000005,51948.05194798127
1.4127750000000006,51282.05128203649
1.4128520000000007,50632.91139244337
1.4129310000000006,50314.46540879863
1.4130100000000005,49382.71604938409
1.4130900000000006,48780.48780492833
1.4131720000000005,48192.771084369735
1.4132540000000005,47619.047619062934
1.4133380000000004,47058.8235294108
1.4134220000000004,45977.01149422156
1.4135080000000004,45454.545454499996
1.4135960000000005,44943.820224716204
1.4136840000000006,44943.820224716204
1.4137740000000005,44692.73743012983
1.4138620000000006,44198.89502762755
1.4139530000000007,43715.846994577994
1.4140430000000006,38277.51196174012
1.4141360000000005,31249.999999995853
1.4142520000000005,33898.30508472781
1.4143920000000005,41884.81675391525
1.4144880000000006,41450.77720209666
1.4145830000000006,41237.11340205601
1.4146810000000005,41025.64102560584
1.4147770000000006,40201.00502511346
1.4148760000000007,40000.0000000044
1.4149760000000007,39800.99502489627
1.4150760000000007,39603.96039607618
1.4151770000000006,39215.68627453461
1.4152780000000005,38834.95145632417
1.4153810000000004,38647.342995156345
1.4154840000000004,38277.511961699456
1.4155880000000005,38277.511961699456
1.4156930000000005,38277.511961699456
1.4157970000000006,37914.69194313493
1.4159020000000007,37558.685446006086
1.4160080000000006,37383.17757006577
1.4161150000000007,37383.17757006577
1.4162220000000008,37209.3023255682
1.4163290000000008,36866.35944701961
1.4164370000000008,36866.35944701961
1.4165460000000007,37037.03703703807
1.4166540000000007,36866.35944701961
1.4167620000000007,36529.68036530194
1.4168710000000007,36529.68036530194
1.4169810000000007,36529.68036530194
