Time,Frequency
7.999999999999999e-05,48484.84848484849
0.00016099999999999998,47619.04761904762
0.000245,46511.627906976755
0.000329,45454.54545454547
0.00041699999999999994,44943.8202247191
0.0005049999999999999,43715.84699453552
0.0005949999999999999,43010.75268817205
0.0006879999999999999,42553.1914893617
0.0007809999999999999,41666.666666666664
0.0008759999999999999,40816.32653061227
0.0009729999999999999,40404.04040404044
0.0010719999999999998,40000.00000000002
0.0011709999999999997,39408.866995073884
0.0012719999999999997,39215.68627450977
0.0013739999999999998,39024.39024390242
0.0014759999999999999,38647.34299516909
0.0015789999999999999,38461.53846153849
0.0016829999999999998,38277.51196172249
0.0017869999999999997,38095.23809523811
0.0018919999999999998,38095.23809523811
0.0019969999999999996,38095.23809523808
0.0021019999999999997,37914.69194312792
0.0022069999999999998,37735.84905660371
0.002313,37558.685446009375
0.002419,37558.685446009375
0.002526,37558.685446009375
0.0026320000000000002,37383.177570093496
0.002739,37558.685446009375
0.002846,37558.685446009375
0.002952,37383.177570093496
0.003059,37383.177570093496
0.003166,37383.177570093496
0.003273,37383.177570093496
0.0033799999999999998,37383.177570093496
0.0034869999999999996,37383.177570093496
0.0035939999999999995,37383.177570093496
0.0037009999999999994,37383.177570093496
0.0038079999999999993,37383.17757009342
0.003914999999999999,37383.17757009334
0.0040219999999999995,37383.17757009334
0.004129,37383.17757009334
0.004236,37558.6854460093
0.0043430000000000005,37558.6854460093
0.004449000000000001,37383.17757009334
0.004556000000000001,37383.17757009334
0.004663000000000001,37558.6854460093
0.004770000000000002,37558.6854460093
0.004876000000000002,37558.6854460093
0.004983000000000002,37735.84905660371
0.005089000000000002,37914.69194312792
0.005195000000000003,38095.23809523808
0.005300000000000003,38095.23809523808
0.005405000000000003,38277.51196172249
0.005510000000000003,38461.53846153849
0.005614000000000003,38277.51196172249
0.005718000000000003,38095.23809523808
0.005823000000000003,38277.51196172249
0.005928000000000003,37914.69194312792
0.006032000000000003,19047.61904761904
0.007561000000000003,51282.05128205132
0.007637000000000002,50632.91139240501
0.0077170000000000025,50314.46540880494
0.0077950000000000024,49689.44099378865
0.007876000000000003,49079.75460122701
0.007956000000000003,48780.487804878285
0.008039000000000003,48192.7710843375
0.008120000000000002,47337.27810650867
0.008205000000000002,47619.047619047196
0.008289000000000003,46783.625730993874
0.008373000000000004,46242.77456647411
0.008460000000000004,46511.62790697714
0.008546000000000003,46242.77456647411
0.008632000000000003,45977.01149425273
0.008719000000000003,45714.28571428576
0.008806000000000003,44692.737430167515
0.008894000000000003,44943.82022471883
0.008985000000000003,45454.545454545245
0.009072000000000004,44692.737430167515
0.009161000000000004,44198.89502762416
0.009251000000000004,44198.89502762416
0.009342000000000005,44198.89502762416
0.009432000000000005,44198.89502762416
0.009523000000000005,43956.043956043985
0.009613000000000005,43243.243243243385
0.009705000000000005,43243.243243243385
0.009798000000000005,43243.243243243385
0.009890000000000005,43243.243243243385
0.009983000000000004,43010.75268817195
0.010075000000000004,42553.191489361554
0.010169000000000004,42553.191489361554
0.010263000000000005,42553.191489361554
0.010357000000000005,42780.74866310168
0.010451000000000005,42553.19148936195
0.010544000000000005,42105.263157894915
0.010639000000000004,42105.263157894915
0.010734000000000004,42105.263157894915
0.010829000000000004,41884.81675392666
0.010924000000000003,41884.81675392666
0.011020000000000004,41884.81675392666
0.011115000000000003,41666.66666666641
0.011211000000000004,41450.77720207244
0.011307000000000005,41237.113402061914
0.011404000000000004,41237.113402061914
0.011501000000000004,41237.113402061914
0.011598000000000004,41237.113402061914
0.011695000000000004,41237.113402061914
0.011792000000000004,41025.64102564087
0.011889000000000004,40816.326530611885
0.011987000000000005,41025.64102564087
0.012085000000000005,41025.64102564087
0.012182000000000005,40816.326530611885
0.012280000000000006,40816.326530611885
0.012378000000000007,40816.326530611885
0.012476000000000008,40609.13705583736
0.012574000000000009,40609.13705583772
0.012673000000000009,40609.13705583772
0.012771000000000008,40201.00502512573
0.012870000000000008,40404.04040404071
0.012970000000000008,40609.13705583772
0.013068000000000007,40201.00502512573
0.013167000000000007,40201.00502512573
0.013267000000000006,40404.04040404035
0.013366000000000006,40201.00502512573
0.013465000000000006,40201.00502512573
0.013565000000000006,40201.00502512573
0.013664000000000006,40000.00000000024
0.013764000000000005,40000.00000000024
0.013864000000000005,40000.00000000024
0.013964000000000004,39603.96039603979
0.014064000000000004,39603.96039603979
0.014166000000000003,40000.00000000024
0.014266000000000003,39800.995024875665
0.014366000000000002,39603.96039603945
0.014467000000000002,39603.96039603945
0.014568000000000003,39408.866995073884
0.014669000000000003,38834.95145631076
0.014771000000000003,38834.95145631076
0.014875000000000003,31620.553359683825
0.014977000000000002,28469.750889679715
0.015128000000000003,20618.556701030957
0.06496299999999999,34482.758620690234
0.06509,37914.69194312995
0.06519499999999999,37383.17757009486
0.06530099999999998,41884.81675392742
0.06540899999999998,41884.81675392742
0.06549199999999998,36529.68036529731
0.06559999999999998,41237.113402061914
0.06571099999999998,41450.777202072815
0.06579399999999998,40404.040404039646
0.06590399999999998,45714.2857142835
0.06599199999999998,45454.545454543004
0.06607899999999998,44943.820224716204
0.06616799999999999,45197.740112991676
0.066257,44692.737430167945
0.066345,43715.84699453821
0.066436,45197.74011299522
0.06652799999999999,39999.99999999886
0.06661299999999999,34334.76394849828
0.066728,39408.86699507489
0.06684599999999999,39024.390243903035
0.06693099999999999,38834.951456311086
0.06705099999999999,42780.748663100094
0.06713699999999999,42780.748663100094
0.06723799999999999,45454.545454543004
0.067324,34334.763948496235
0.067414,34334.763948496235
0.067557,37735.84905660309
0.06764700000000001,37558.68544601098
0.06776900000000001,43715.84699453821
0.06786,41884.81675392742
0.067952,41884.81675392742
0.068051,43010.752688173954
0.068143,41666.66666666716
0.06823699999999999,41666.66666666716
0.06833499999999999,42328.042328043506
0.06842899999999999,41666.66666666716
0.06852399999999999,41450.777202072815
0.06862099999999999,41666.66666666716
0.06871699999999999,41884.81675392742
0.06881299999999999,37037.03703703807
0.06890799999999998,33195.020746889175
0.06902899999999998,37383.17757009486
0.06914899999999997,15904.572564612217
0.12044799999999997,39603.96039603809
0.12055999999999997,43715.8469945349
0.12064999999999998,44444.44444444454
0.12074299999999998,44692.737430167945
0.12082999999999998,43010.752688173954
0.12092199999999997,43243.24324324541
0.12101599999999997,43715.84699453821
0.12110699999999996,42553.19148936312
0.12119899999999996,42328.042328043506
0.12129499999999996,42780.748663103266
0.12138799999999995,42780.748663103266
0.12148199999999995,37735.849056605555
0.12157499999999995,37037.03703703807
0.12169399999999994,37209.30232558261
0.12179099999999994,24316.1094224927
0.12190899999999993,20100.502512562336
0.12211999999999994,13698.630136986274
0.12412699999999993,18648.0186480187
0.12442799999999993,34042.55319148949
0.12455599999999993,33472.80334728184
0.12466299999999993,21563.342318059513
0.12479499999999992,8879.023307436191
0.2214829999999999,33057.85123967048
0.2216129999999999,35874.43946188325
0.2217249999999999,39603.96039603809
0.2218359999999999,44198.895027620776
0.2219269999999999,43715.84699453158
0.2220169999999999,43715.84699453158
0.22210999999999992,43715.84699453158
0.22219999999999993,43478.26086956108
0.22229299999999994,43715.84699453158
0.22238399999999994,42780.74866309692
0.22247599999999995,42553.19148935684
0.22257099999999996,42780.74866309692
0.22266399999999997,42105.26315788953
0.22275799999999998,42105.26315788953
0.222854,42105.26315788953
0.222948,41884.81675392133
0.22304400000000002,41666.666666661135
0.22313900000000003,41450.77720206685
0.22323600000000005,41450.77720206685
0.22333200000000006,41237.11340205601
0.22342900000000007,41025.64102564087
0.22352600000000009,40816.32653061766
0.22362400000000007,40816.32653061766
0.22372200000000006,41025.64102564087
0.22382000000000005,41025.64102564087
0.22391700000000006,40404.04040404531
0.22401500000000005,40404.04040404531
0.22411500000000004,40404.04040404531
0.22421300000000002,40000.0000000044
0.224313,40404.04040404531
0.224413,40404.04040404531
0.224511,39800.99502487978
0.22461099999999998,40000.0000000044
0.22471199999999997,40201.00502513028
0.22481099999999996,39603.96039604353
0.22491099999999994,39603.96039604353
0.22501299999999994,39800.99502487978
0.22511299999999992,39408.86699507759
0.22521399999999991,39408.86699507759
0.2253159999999999,39603.96039604353
0.2254169999999999,39408.86699507759
0.22551799999999989,39408.86699507759
0.22561999999999988,39408.86699507759
0.22572099999999987,39024.390243905684
0.22582299999999986,39215.68627451327
0.22592599999999985,39215.68627451327
0.22602699999999984,38647.342995171886
0.22612999999999983,39215.68627451327
0.22623399999999982,39408.86699507759
0.2263339999999998,39024.390243905684
0.2264369999999998,39408.86699507759
0.2265389999999998,35555.55555555508
0.22663999999999979,31872.50996015921
0.2267639999999998,24390.2439024394
0.2268909999999998,14440.433212996417
0.2347849999999998,37735.849056605555
0.2349109999999998,37209.30232558261
0.2349969999999998,27972.027972029857
0.23512599999999978,26058.63192182396
0.23528299999999977,28070.175438595754
0.23543299999999978,30188.679245284446
0.23556799999999978,32653.061224490433
0.23569799999999977,39800.99502487429
0.23581299999999977,33057.85123967048
0.23589899999999978,29739.776951673804
0.23605499999999977,29520.29520295274
0.23616799999999977,31872.50996015921
0.23632599999999976,29411.76470587995
0.23641899999999977,29520.295202949717
0.23659799999999978,39024.390243900394
0.2366899999999998,35242.2907488979
0.2368029999999998,32128.514056225
0.2369169999999998,29090.909090909357
0.2370519999999998,26578.073089701375
0.2371919999999998,24539.877300614025
0.3541149999999998,34482.758620688175
0.3542489999999998,40404.04040404531
0.3543469999999998,44444.44444444111
0.3544469999999998,43956.043956040216
0.3545269999999998,43243.24324324541
0.3546289999999998,47904.19161677429
0.3547119999999998,42328.042328043506
0.3547959999999998,42105.26315788953
0.3549009999999998,47058.8235294108
0.3549859999999998,47058.8235294108
0.3550709999999998,47058.8235294108
0.3551559999999998,46242.774566479675
0.3552409999999998,45714.28571429075
0.3553289999999998,46242.774566479675
0.3554159999999998,40609.137055837
0.35550199999999976,40609.137055837
0.3556129999999998,45454.545454557345
0.35569899999999977,45454.545454557345
0.35578899999999974,44692.73743017141
0.3558749999999997,44198.89502762755
0.35596799999999973,44943.82022473022
0.3560559999999997,44692.73743017141
0.3561459999999997,44943.820224716204
0.3562349999999997,44198.89502762755
0.3563239999999997,43715.84699453821
0.3564159999999997,44198.89502762755
0.3565069999999997,43956.043956053625
0.35659699999999966,43478.2608695742
0.35668899999999965,43243.24324324541
0.3567809999999996,43715.84699453821
0.35687399999999964,43715.84699453821
0.3569639999999996,43243.24324324541
0.3570569999999996,43010.75268818037
0.3571489999999996,43010.75268818037
0.3572429999999996,43010.75268818037
0.35733499999999957,42553.191489369405
0.35742899999999955,43010.75268818037
0.35752299999999954,42553.191489369405
0.3576149999999995,42553.191489369405
0.3577109999999995,42553.191489369405
0.3578029999999995,41884.81675392742
0.35789899999999947,42553.19148935684
0.3579939999999995,42553.19148935684
0.3580869999999995,41884.81675392742
0.3581819999999995,42553.191489369405
0.3582779999999995,42328.042328043506
0.35836999999999947,41237.11340205601
0.3584669999999995,41884.81675392742
0.3585639999999995,42780.748663103266
0.3586579999999995,42328.042328043506
0.3587509999999995,41237.113402067815
0.35884699999999947,41025.64102564087
0.35894499999999946,41666.666666661135
0.3590419999999995,42105.26315788953
0.3591369999999995,37037.03703703807
0.3592319999999995,37037.03703703807
0.3593529999999995,30075.187969926115
0.3594479999999995,10471.204188481855
0.44403599999999943,20512.820512820435
0.4442319999999994,21447.721179623964
0.44442599999999943,22471.910112361606
0.4446049999999994,22471.910112361606
0.4447819999999994,26755.852842809927
0.4449609999999994,31620.553359683392
0.4450809999999994,26755.852842809927
0.4452139999999994,22471.910112358102
0.4453799999999994,27972.027972027143
0.4455699999999994,27874.56445993209
0.4456659999999994,27972.027972027143
0.4458569999999994,33613.445378149
0.4459519999999994,25559.105431309275
0.4460949999999994,29629.629629630457
0.4462649999999994,36036.03603603604
0.4463649999999994,32520.325203248864
0.4464869999999994,29520.295202949717
0.4466109999999994,29411.76470588295
0.44675799999999943,31746.03174603496
0.4468829999999994,32000.000000003525
0.4470099999999994,32000.000000003525
0.4471329999999994,28571.428571428318
0.4472599999999994,26578.073089701375
0.4474129999999994,24464.831804283873
0.4475609999999994,22284.122562674205
0.44773999999999936,22346.36871508224
0.4479199999999994,23952.095808383165
0.4480979999999994,19184.652278177426
0.4482539999999994,19370.460048426306
0.4485149999999994,18264.840182648655
0.44866699999999937,13468.013468013844
0.4489529999999994,10362.694300518204
2.52664,9049.773755655015
2.527132,8781.55872667082
2.527524,9626.955475328052
2.5280430000000003,12965.96434359617
2.5283550000000004,11494.252873562724
2.5351770000000005,9557.94504181374
2.5577040000000006,9009.009009006757
2.5633630000000007,9557.94504181374
2.582673000000001,12048.192771084376
5.853701,9090.909090904586
6.640981999999997,8752.735229760647
7.09762099999999,8040.201005028074
7.326889999999991,9101.251422067468
7.33671399999999,8281.573498964612
7.33723899999999,9280.742459390458
7.33767999999999,9009.009009002251
7.407745999999991,8565.310492505441
7.408173999999991,8928.57142857135
7.426327999999991,8537.8868729952
7.461548999999993,8639.308855293813
7.462120999999993,11887.0728083223
7.560006999999994,8447.729672650197
7.561536999999994,8281.573498964612
7.693160999999991,8088.978766433318
7.746955999999989,8196.721311470941
8.364736999999996,8752.735229760647
