Time,Frequency
7.099999999999999e-05,54421.768707482996
0.00014399999999999998,53333.33333333333
0.00021799999999999999,52287.581699346396
0.000294,51612.90322580644
0.000371,50955.414012738845
0.000449,50314.46540880502
0.000528,49382.7160493827
0.000608,48484.84848484849
0.0006900000000000001,47904.19161676648
0.000773,47337.27810650888
0.000857,47058.82352941179
0.000942,46511.627906976755
0.001027,45714.28571428571
0.001114,45454.54545454547
0.001202,44943.8202247191
0.00129,44198.89502762432
0.00138,43956.043956043985
0.0014709999999999999,43478.26086956524
0.0015619999999999998,42780.74866310163
0.0016549999999999998,42553.19148936175
0.0017489999999999997,42105.26315789477
0.0018429999999999996,41666.666666666686
0.0019389999999999995,41666.66666666664
0.0020349999999999995,41450.77720207253
0.0021309999999999996,41025.64102564105
0.0022279999999999995,40609.137055837535
0.0023259999999999995,40201.00502512564
0.0024249999999999996,39800.995024875665
0.0025249999999999995,39603.96039603962
0.0026259999999999994,39215.68627450985
0.0027269999999999994,39024.39024390246
0.002829999999999999,39024.39024390246
0.0029319999999999993,38834.95145631076
0.003034999999999999,38834.95145631076
0.003137999999999999,38461.53846153849
0.0032409999999999987,38095.23809523808
0.0033459999999999987,38277.51196172249
0.0034509999999999988,38277.51196172249
0.0035549999999999987,37914.69194312792
0.0036599999999999988,37914.69194312792
0.003765999999999999,37914.691943128
0.003870999999999999,37735.84905660378
0.003976999999999999,37383.177570093496
0.004082999999999999,37209.30232558141
0.0041909999999999985,37383.17757009334
0.004297999999999999,37209.30232558141
0.004404999999999999,37037.037037037175
0.004512999999999999,36866.359447004725
0.004620999999999998,36866.359447004725
0.004729999999999998,36866.359447004725
0.004837999999999998,36697.24770642211
0.004946999999999997,36697.24770642211
0.005055999999999997,36697.24770642211
0.005164999999999997,36529.680365296874
0.005273999999999997,36363.63636363641
0.005383999999999996,36529.680365296874
0.005493999999999996,36529.680365296874
0.005602999999999996,36199.09502262446
0.005712999999999996,36036.03603603604
0.005823999999999996,36036.03603603604
0.005934999999999996,36036.03603603604
0.006045999999999996,36036.03603603604
0.006156999999999996,36036.03603603604
0.006267999999999996,35714.285714285674
0.006378999999999996,35714.285714285674
0.006491999999999996,36036.03603603604
0.006602999999999996,35714.285714285674
0.006713999999999996,35714.285714285674
0.006826999999999996,35874.43946188339
0.006937999999999996,35874.43946188339
0.007049999999999996,35714.285714285674
0.007160999999999996,35555.5555555555
0.007273999999999997,35555.5555555555
0.007385999999999997,35398.2300884955
0.007498999999999997,35714.285714285674
0.007611999999999997,35874.43946188353
0.007722999999999997,35242.29074889871
0.007834999999999996,31746.031746031684
0.007949999999999997,17094.017094017105
0.075746,37383.17757009243
0.07586999999999999,21505.376344085373
0.07596,17977.5280898876
0.076242,23391.812865497413
0.076405,22988.505747126364
0.076584,25477.70700636872
0.076753,29520.29520295123
0.07689800000000001,37209.30232558021
0.07702400000000001,46511.62790697526
0.07711300000000001,47058.8235294108
0.07719600000000001,45197.740112991676
0.07728300000000002,45454.545454543004
0.07737300000000003,45454.545454543004
0.07745900000000003,39603.96039603809
0.07754900000000003,29197.08029197118
0.07766100000000004,25078.369905956126
0.07782300000000003,11904.761904761799
0.07849500000000004,8714.596949891047
0.14912500000000004,38277.51196172487
0.14923600000000004,48192.7710843375
0.14933400000000002,60150.37593983968
0.14940200000000003,52631.578947363836
0.14946700000000004,41450.777202072815
0.14955400000000005,45454.54545455017
0.14966000000000004,45197.74011299876
0.14973000000000003,12121.212121212233
0.14983700000000003,11904.761904761799
0.15039000000000002,33472.80334727796
0.15050900000000003,36529.68036529731
0.15062900000000004,36036.03603603604
0.15072800000000003,20356.234096691882
0.15085100000000004,19277.108433735
0.15112100000000003,18912.529550827123
0.15126600000000004,16842.10526315778
0.15154400000000004,26058.63192182396
0.15174100000000004,40404.040404039646
0.15185100000000004,45714.2857142835
0.15193900000000005,45977.011494250895
0.15202600000000005,45197.740112991676
0.15211300000000005,44943.820224716204
0.15220300000000006,45197.740112991676
0.15229100000000007,44198.895027620776
0.15238000000000007,44444.44444444111
0.15247200000000008,44692.73743016448
0.15256000000000008,43478.26086956108
0.1526510000000001,43715.84699453158
0.1527440000000001,43956.043956040216
0.1528340000000001,43243.243243238925
0.15292600000000012,43478.26086956108
0.15301900000000013,43243.243243238925
0.15311000000000013,37914.691943124955
0.15320400000000015,38095.23809523524
0.15332100000000015,43243.243243238925
0.15341400000000016,37383.17757009001
0.15350600000000017,30418.250950568814
0.15362800000000018,17777.77777777754
0.15376900000000018,11173.184357541986
0.1540780000000002,10012.515644555768
0.20017200000000018,42553.19148936312
0.20029800000000017,62992.12598424404
0.20036000000000018,61538.461538452546
0.2004250000000002,61538.461538452546
0.2004900000000002,59701.49253730319
0.2005550000000002,58394.16058393053
0.20062400000000022,57971.014492753944
0.20069200000000023,57142.857142867964
0.20076200000000022,56338.02816902381
0.2008320000000002,55172.413793111635
0.2009040000000002,48780.4878048788
0.20097700000000018,47904.19161676633
0.2010680000000002,53333.33333333921
0.20114400000000018,52631.57894737345
0.20121800000000017,52631.57894737345
0.20129600000000017,52287.58169935102
0.20137000000000016,51282.05128205474
0.20144900000000016,51282.05128205474
0.20152600000000015,50314.46540880741
0.20160500000000015,50314.46540880741
0.20168500000000014,49689.44099379052
0.20176400000000014,49079.75460122805
0.20184600000000014,48484.84848484893
0.20192700000000013,47904.19161676633
0.20201100000000013,48192.7710843375
0.20209400000000013,47619.047619047196
0.20217700000000013,47337.27810650818
0.20226200000000014,47058.8235294108
0.20234600000000014,46511.62790697526
0.20243200000000014,46783.62573099293
0.20251800000000014,46242.77456647225
0.20260300000000014,45714.2857142835
0.20269100000000015,45977.011494250895
0.20277800000000015,45454.545454543004
0.20286500000000016,45197.740112991676
0.20295400000000016,45197.740112991676
0.20304200000000017,44444.44444444111
0.20313100000000017,44444.44444444111
0.20322200000000018,44198.895027620776
0.20331100000000019,43478.26086956108
0.2034030000000002,43715.84699453158
0.2034950000000002,43715.84699453158
0.2035860000000002,42780.74866309692
0.20367800000000022,42780.74866309692
0.20377300000000023,43243.243243238925
0.20386500000000024,41884.81675392742
0.20395800000000025,42105.263157895686
0.20405600000000024,37914.691943124955
0.20414800000000025,33613.445378149
0.20426700000000025,36697.2477064227
0.20438600000000026,30303.030303031857
0.20448500000000025,25723.472668809816
0.20465000000000025,25236.593059935974
0.20479600000000026,25078.369905955034
0.20496700000000026,16129.032258064632
0.20511500000000027,10498.687664042203
0.24869600000000025,40609.137055837
0.24878500000000026,27118.644067797555
0.24889300000000025,14311.270125223513
0.25031900000000024,19230.76923076796
0.25060100000000024,35874.439461878785
0.25073500000000026,39999.999999993306
0.25082400000000027,29629.629629624364
0.2509350000000003,29304.02930402681
0.2510940000000003,34782.60869565097
0.2512080000000003,28368.794326240684
0.2513240000000003,28169.0140845064
0.2514900000000003,28268.5512367458
0.25160800000000033,18648.018648018096
0.25177300000000036,19559.902200489345
0.25203700000000034,19417.475728154233
0.25218200000000035,10484.927916120389
0.25244900000000037,9478.672985781863
0.3053230000000004,47619.047619047196
0.3054060000000004,47904.19161675837
0.3054910000000004,47904.19161675837
0.3055730000000004,47058.8235294108
0.30565800000000043,46783.62573100052
0.30574300000000043,46783.62573100052
0.3058290000000004,45714.28571429075
0.3059140000000004,45197.74011299876
0.3060040000000004,45454.545454543004
0.3060910000000004,44692.73743017141
0.3061800000000004,44692.73743017141
0.3062700000000004,44444.44444444111
0.3063590000000004,43715.84699453821
0.3064500000000004,43715.84699453821
0.30654200000000037,43478.26086956108
0.3066330000000004,43010.75268816754
0.3067260000000004,42780.748663103266
0.3068190000000004,42780.748663103266
0.3069130000000004,42328.042328043506
0.3070060000000004,42105.263157901834
0.3071020000000004,42328.042328043506
0.30719600000000036,41025.64102564087
0.30729100000000037,41450.777202072815
0.30739100000000036,42553.19148935684
0.30748400000000037,36529.680365292676
0.3075790000000004,36199.09502262006
0.3077030000000004,36529.680365292676
0.3078000000000004,36529.680365292676
0.3079220000000004,35874.439461878785
0.30801900000000043,35087.719298244694
0.30814500000000045,35714.2857142854
0.30824700000000044,36199.09502262006
0.30836900000000045,35714.2857142854
0.30846800000000046,34782.60869565097
0.30859300000000045,38834.951456303235
0.30869800000000047,39800.99502487429
0.3087990000000005,35087.719298244694
0.3088990000000005,23952.095808383165
0.3090270000000005,22222.222222223983
0.3092330000000005,28368.794326240684
0.30938700000000047,20671.834625321597
0.3095150000000005,16227.180527382669
0.3097740000000005,16096.57947686035
3.2289739999999996,8639.308855293813
3.279553999999999,8429.926238146601
3.294111,8130.081300810381
3.294611,8988.76404494324
3.2950950000000003,9489.91696322989
3.2955010000000002,8298.755186724205
3.295938,8928.57142857135
3.356515000000001,8447.729672650197
3.420011000000001,8273.009307134083
3.428697000000001,10075.566750630212
3.4361990000000007,8810.572687225555
3.7549450000000006,9638.55421686621
4.5316469999999995,9227.220299880453
4.5321489999999995,9367.681498825152
4.532514,9378.663540443125
4.538681,8368.200836824348
4.539637,8394.543546694811
4.547729,8412.197686648271
4.599663,9592.326139096374
4.600091999999999,8810.572687225555
4.605358999999999,8016.0320641278195
4.607186,10825.4397835003
4.607552999999999,12658.227848110842
4.607924999999999,12519.561815344063
4.609493999999999,9029.345372456559
4.611166999999999,10781.67115903258
4.611405999999999,9467.455621301948
4.611908999999999,13266.998341627206
4.612250999999999,9864.364981508292
4.613061999999998,8978.675645340325
4.613588999999998,12759.1706538953
4.617568999999999,8908.685968816748
4.6178919999999986,8705.114254619304
4.667003999999998,9142.85714285061
4.6746039999999995,15267.17557250705
4.674874,13937.282229957958
4.675128,11019.283746553037
4.675448,9122.006841504957
4.675854,10217.113665386914
4.677442,8810.572687225555
4.679812,13333.33333334467
4.681261999999999,9142.85714285989
4.681646999999999,8602.150537631454
4.682136999999999,8474.576271181952
4.682576999999999,10309.278350514003
4.683081,11904.761904765734
4.683352999999999,10256.410256413137
4.683752999999999,9685.230024213153
4.684132999999999,8565.310492505441
4.684578999999999,9184.84500573983
4.685066999999999,9661.835748789086
4.6854499999999994,11799.410029503148
4.6858949999999995,15779.09270217544
4.762845999999999,18348.623853187986
4.763100999999999,18223.23462414254
4.763281999999999,18957.345971587416
4.763539999999999,16913.319238918455
4.763703999999999,11396.011396018923
4.871276999999998,52980.132450093115
4.8713549999999985,53691.27516764153
4.871427999999999,52287.58169932257
4.871503999999999,52287.58169932257
4.871580999999999,51612.90322569014
4.871656999999999,51282.051281890504
4.871735999999999,51282.051281890504
4.8718129999999995,50632.91139215874
4.871892,50314.46540879863
4.871971,50000.00000022755
4.872051,49689.44099397041
4.8721309999999995,49079.75460131998
4.872211999999999,49079.75460131998
4.872293999999999,43715.846994577994
4.872374999999999,21857.923497288997
4.872476999999999,11267.605633806525
4.872740999999999,12084.59214501214
4.873186999999999,20202.02020200566
4.873402999999999,27777.777777749998
4.873582999999999,30418.25095053029
4.873690999999999,32921.81069955931
4.8738459999999995,44943.820224716204
4.873933999999999,44692.73743012983
4.8740239999999995,44198.89502751911
4.8741129999999995,44198.89502751911
4.874205,44444.44444437258
4.874294,43956.04395590615
4.874385,43715.84699436582
4.8744760000000005,43715.84699436582
4.874568000000001,43715.84699436582
4.874659000000001,43010.75268811619
4.874751000000002,43243.24324321946
4.874845000000001,43243.24324321946
4.874936000000002,42780.748663217564
4.8750300000000015,43010.752688321576
4.875123000000001,42780.748663217564
4.875216000000001,42328.04232809324
4.875310000000001,42553.19148944479
4.875405000000001,42780.748663217564
4.875498,42328.04232809324
4.875592,42328.04232809324
4.875687,42328.04232809324
4.875781,42105.26315791414
4.875876,42105.26315791414
4.875971,42553.19148944479
4.876066,42328.04232809324
4.8761589999999995,41884.81675391525
4.876255,42105.26315791414
4.8763499999999995,41884.81675391525
4.8764449999999995,30651.340996160747
4.981097999999999,41450.77720200128
4.981195,46511.62790696025
4.981291,37037.03703703807
4.981367,33333.333333361676
4.982711999999999,33057.85123965911
4.982864999999999,45197.74011302711
4.982953999999999,40404.04040401132
4.983041999999999,39999.999999915584
4.983152,44444.44444437258
4.983242,44692.73743012983
4.983332,44198.89502751911
4.983421,43715.84699436582
4.983513,43956.04395590615
4.983604000000001,43715.84699436582
4.983695000000001,43243.24324321946
4.983787000000001,43243.24324321946
4.983880000000001,43243.24324321946
4.983972000000001,43010.752688321576
4.984065000000001,42780.748663217564
4.984158000000001,42328.04232809324
4.984252000000001,42328.04232809324
4.9843470000000005,42553.19148944479
4.984441,42328.04232809324
4.984535,42105.26315791414
4.98463,41884.81675391525
4.984725,41884.81675391525
4.984821,41884.81675391525
4.984916,41450.77720200128
4.985012,41237.113401961615
4.9851090000000005,41237.113401961615
4.985206000000001,41025.64102551241
4.985303000000001,41237.113401961615
4.985401000000001,41025.64102569927
4.985497000000001,36199.095022656424
4.985596000000001,36036.03603604505
4.985718000000001,40816.326530640785
4.985818000000001,41450.77720200128
4.985914000000001,40816.326530640785
4.986011000000001,40404.040404192565
4.986110000000001,41025.64102569927
4.986209000000001,40816.326530640785
4.986305000000001,32388.66396762626
4.986405,24999.999999974996
4.9865520000000005,24922.118380026608
4.986725000000001,31872.509960102816
4.986873000000001,39800.99502476437
4.986976000000001,32128.514056203512
4.987074000000002,18018.018018022525
5.091420000000001,33333.333333361676
5.091547000000001,42105.26315791414
5.091660000000001,52631.57894739267
5.091737000000001,52631.57894739267
5.091812000000001,52287.58169932257
5.091889000000001,51948.05194798127
5.091965000000001,51612.90322569014
5.092043000000001,50632.91139244337
5.092120000000001,50955.41401282302
5.092201000000001,50632.91139244337
5.092277000000001,49999.99999994999
5.092359000000001,50314.46540879863
5.092437000000001,49079.75460131998
5.092518000000001,49382.71604951947
5.092600000000001,21739.1304347871
5.0926800000000005,13400.335008376136
5.092968000000001,20408.163265320392
5.0932770000000005,48484.84848485709
5.0933600000000006,41884.81675391525
5.0934420000000005,40816.326530640785
5.093551000000001,37383.17757014334
5.093638,37383.17757014334
5.093765,45197.74011302711
5.093852,45977.011494162885
5.093942,46511.62790696025
5.094026,45197.74011302711
5.094114,45714.28571439225
5.094203,45454.54545461469
5.094289,45197.74011302711
5.094379,45454.54545461469
5.094466,44692.73743012983
5.094555,44943.820224716204
5.094645,44943.820224716204
5.094733,44444.44444437258
5.094823,44444.44444437258
5.094913,44198.89502751911
5.095003,43956.04395590615
5.0950940000000005,43715.84699436582
5.095185000000001,43478.260869364334
5.095277000000001,43715.84699436582
5.095369000000002,43478.2608695742
5.095460000000002,43243.24324321946
5.0955530000000016,43243.24324321946
5.095645000000002,43010.752688321576
5.095738000000002,43010.752688321576
5.095831000000001,42780.748663217564
5.095924000000001,42553.19148944479
5.096018000000001,42328.04232809324
5.096112000000001,42105.26315791414
5.096207000000001,42553.19148944479
5.0963020000000006,42105.26315791414
5.096395,41884.81675391525
5.0964920000000005,42105.26315791414
5.096586,41666.666666624995
5.096682,41884.81675391525
5.0967780000000005,41884.81675391525
5.096873,41666.666666624995
5.0969690000000005,41666.666666624995
5.097065000000001,41450.77720200128
5.097161000000001,41025.64102551241
5.097258000000001,41237.113401961615
5.097356000000001,41450.77720200128
5.097452000000001,41450.77720200128
5.097549000000002,41666.666666624995
5.097645000000002,41450.77720200128
5.097741000000002,41450.77720200128
5.097838000000002,41884.81675391525
5.097934000000002,37037.03703703807
5.098029000000002,27874.564459915917
5.098150000000002,14678.899082574311
5.196675000000002,33755.27426156566
5.196804000000002,36697.24770637597
5.196912000000002,40816.326530640785
5.197022000000002,40816.326530640785
5.197108000000002,40201.0050250686
5.197218000000002,44943.820224716204
5.197307000000002,44943.820224716204
5.197396000000002,44692.73743012983
5.197485000000002,44444.44444437258
5.197575000000002,44444.44444437258
5.197665000000002,44198.89502751911
5.197755000000003,43715.84699436582
5.197846000000003,43715.84699436582
5.197938000000003,43715.84699436582
5.198029000000004,43478.260869364334
5.198121000000004,43243.24324321946
5.198213000000004,43010.752688321576
5.198306000000004,43243.24324321946
5.198399000000004,43010.75268811619
5.198491000000004,42780.748663217564
5.198585000000004,42780.748663217564
5.198678000000004,42328.04232809324
5.1987720000000035,42328.04232809324
5.1988670000000035,42553.19148944479
5.198961000000003,42105.26315791414
5.199055000000003,41884.81675391525
5.199151000000003,41884.81675391525
5.199246000000003,41884.81675391525
5.199342000000003,41666.666666624995
5.199437000000003,41450.77720200128
5.199534000000003,41450.77720200128
5.1996300000000035,41237.113401961615
5.199727000000004,41450.77720200128
5.199824000000004,41450.77720200128
5.199920000000004,41025.64102551241
5.200017000000004,41025.64102551241
5.200115000000005,41237.113401961615
5.200212000000005,41025.64102551241
5.200309000000005,40816.32653045582
5.2004070000000056,40816.32653045582
5.200505000000006,41025.64102551241
5.200603000000006,40816.326530640785
5.2007000000000065,40609.137055837
5.200799000000006,40609.137055837
5.2008970000000065,40404.040404192565
5.200996000000006,40404.040404192565
5.201095000000006,40404.040404192565
5.201194000000005,40404.040404192565
5.201293000000005,40404.040404192565
5.201392000000005,40404.040404192565
5.201491000000004,40201.00502524803
5.201590000000004,40201.00502524803
5.201690000000004,40201.00502524803
5.201789000000003,39800.99502494024
5.201889000000003,40000.00000009323
5.201990000000003,40201.00502524803
5.202089000000003,39603.96039607618
5.202189000000002,39800.99502494024
5.202291000000002,40201.00502524803
5.202390000000002,39800.99502494024
5.202490000000002,39603.96039607618
5.202591000000002,40000.00000009323
5.202692000000002,39603.96039607618
5.202791000000001,39215.68627449193
5.2028940000000015,39603.96039607618
5.202995000000001,39800.99502494024
5.203096000000001,39603.96039607618
5.203196000000001,39408.86699508297
5.203298000000001,39603.96039607618
5.203399000000001,39603.96039607618
5.203500000000001,35398.230088555814
5.203601000000001,28985.50724642944
5.292496,27777.777777749998
5.29265,31746.03174606993
5.292784,36363.63636369175
5.292902,44692.73743012983
5.293004,45197.74011302711
5.293081,30651.340996160747
5.293181,19753.08641972115
5.293342,24539.877300593133
