Time,Frequency
8.9e-05,44444.444444444445
0.000178,43715.84699453552
0.000269,43243.24324324325
0.000361,42780.74866310161
0.000454,42105.263157894726
0.000548,41666.666666666664
0.000644,41450.77720207255
0.00074,41237.11340206187
0.000837,40816.32653061227
0.0009339999999999999,40404.04040404044
0.0010329999999999998,40000.00000000002
0.0011319999999999998,39603.96039603962
0.0012329999999999997,39408.866995073884
0.0013339999999999997,39215.68627450977
0.0014359999999999998,38834.95145631068
0.0015379999999999999,38461.53846153849
0.0016419999999999998,38277.51196172249
0.0017459999999999997,38095.23809523808
0.0018509999999999998,37914.69194312792
0.001956,37558.685446009375
0.002062,37383.177570093496
0.002169,37209.30232558141
0.002276,36697.24770642204
0.002384,36697.24770642204
0.0024939999999999997,36866.35944700458
0.0026019999999999997,36529.6803652968
0.002711,36363.63636363641
0.0028209999999999997,36199.09502262446
0.0029309999999999996,36036.03603603604
0.0030419999999999996,36036.03603603604
0.0031529999999999996,35874.43946188339
0.0032639999999999995,35555.55555555556
0.0033759999999999997,35555.55555555556
0.0034889999999999995,35555.55555555556
0.0036009999999999996,35242.29074889871
0.0037139999999999994,35398.230088495635
0.0038279999999999994,35398.23008849556
0.003939999999999999,35242.29074889858
0.0040539999999999994,35087.719298245625
0.004167,34782.60869565228
0.004281999999999999,34782.60869565228
0.004396999999999999,34782.60869565228
0.004511999999999999,35087.719298245625
0.004626999999999998,35242.29074889858
0.0047399999999999986,34482.758620689594
0.004853999999999999,34482.758620689594
0.004971999999999999,34782.60869565215
0.005085999999999999,34334.7639484979
0.005201999999999999,34188.03418803421
0.005318999999999999,34782.60869565215
0.005435999999999999,34934.49781659388
0.005548999999999999,34334.7639484979
0.005664999999999999,34334.7639484979
0.005781999999999999,34782.60869565215
0.005897999999999999,34934.49781659388
0.006011999999999999,34482.75862068972
0.006126999999999999,34482.75862068972
0.006243999999999999,35242.29074889871
0.006358999999999998,30888.030888030822
0.0064709999999999985,24767.80185758511
0.018216,8648.648648648628
0.057347,13793.103448275764
0.057606000000000004,10610.079575596752
0.057927000000000006,11958.146487294418
0.05836000000000001,20833.333333333205
0.05859600000000001,26143.79084967314
0.05874400000000001,27586.20689655186
0.05890200000000001,36363.636363636695
0.05903400000000001,35874.43946188325
0.05912200000000001,34934.49781659388
0.05925700000000001,39024.390243903035
0.05935100000000001,34934.49781659388
0.05946200000000001,38647.342995169296
0.05958000000000001,43243.243243243785
0.05966900000000001,42553.191489361554
0.059765000000000006,43478.260869564365
0.05985700000000001,42328.042328041956
0.05994900000000001,42328.042328041956
0.06004600000000001,38647.342995169296
0.06013800000000001,37558.68544600976
0.06025300000000001,41666.66666666716
0.06035100000000001,33755.27426160421
0.060445000000000006,33333.33333333373
0.060588,41450.777202072815
0.060685,41450.777202072815
0.060781,41025.64102564087
0.060878,42105.263157894144
0.060976,36697.24770642153
0.061068000000000004,36199.0950226246
0.061194000000000005,30303.030303030264
0.061289,27397.260273972548
0.061458000000000006,36363.636363636695
0.061581000000000004,29962.546816479804
0.061678000000000004,27397.2602739732
0.061848,29520.295202951984
0.06197,18181.818181818064
0.062119,11363.636363636311
0.11255699999999999,17094.017094016726
0.112895,30769.230769229558
0.113025,18181.818181817776
0.113155,16359.918200408887
0.11346500000000001,22038.567493112812
0.11364400000000001,26936.02693602643
0.11382800000000001,35087.719298244694
0.11394100000000001,31746.031746031465
0.11405600000000002,31128.404669261505
0.11419300000000002,37037.03703703807
0.11431300000000001,42328.042328043506
0.11440900000000001,42553.19148936312
0.114502,37209.30232558261
0.114597,37558.68544601098
0.114717,33472.80334728184
0.11481,30075.187969926115
0.11495599999999999,33195.020746889175
0.11507599999999998,29962.546816480582
0.11519699999999998,23323.61516035012
0.11534299999999997,23255.81395348857
0.11553999999999998,24999.999999999935
0.11568699999999997,21680.21680216754
0.11585999999999998,15238.095238095306
0.17808699999999997,27210.884353742542
0.17828099999999997,36363.636363636695
0.17838099999999996,30651.340996167266
0.17850099999999997,32786.88524590241
0.17864199999999997,43243.24324324541
0.17874499999999996,47337.27810650818
0.17882699999999996,46511.62790697526
0.17891399999999996,47337.27810650818
0.17899899999999996,46783.62573099293
0.17908299999999996,45977.011494250895
0.17916999999999997,45977.011494250895
0.17925699999999997,45714.2857142835
0.17934399999999998,44943.820224716204
0.17943199999999998,44444.44444444111
0.179522,44444.44444444111
0.179612,43956.043956040216
0.179702,43478.26086956108
0.179794,43243.243243238925
0.17988600000000002,43243.243243238925
0.17997900000000003,42780.74866309692
0.18007100000000004,42328.04232803729
0.18016600000000005,42553.19148935684
0.18026000000000006,42105.26315788953
0.18035400000000007,41884.81675392133
0.18045000000000008,41884.81675392133
0.1805450000000001,41666.666666661135
0.1806410000000001,41450.77720206685
0.18073700000000012,41237.11340205601
0.18083400000000013,41025.64102564087
0.18093100000000015,40816.32653061766
0.18102900000000013,40816.32653061766
0.18112700000000012,40609.13705584272
0.1812250000000001,40404.04040404531
0.1813240000000001,40201.00502513028
0.18142300000000008,40000.0000000044
0.18152300000000007,40201.00502513028
0.18162300000000006,40201.00502513028
0.18172200000000005,39800.99502487978
0.18182200000000004,39800.99502487978
0.18192300000000003,39603.96039604353
0.18202300000000002,39408.86699507759
0.182125,39408.86699507759
0.182226,39408.86699507759
0.182328,39408.86699507759
0.18242899999999998,39024.390243905684
0.18253099999999997,39215.68627451327
0.18263399999999996,39408.86699507759
0.18273499999999995,38834.9514563137
0.18283699999999994,38834.9514563137
0.18294099999999994,39024.390243905684
0.18304299999999993,38834.9514563137
0.18314599999999992,39024.390243905684
0.1832489999999999,39215.68627451327
0.1833509999999999,38834.9514563137
0.1834529999999999,39215.68627451327
0.1835569999999999,39408.86699507759
0.18365699999999988,30769.230769232843
0.18375999999999987,28169.014084509152
0.18391699999999986,34188.034188036494
0.18404399999999985,34042.553191491505
0.23584399999999986,9313.154831199083
0.23630599999999985,10914.051841746079
0.23670299999999986,11594.20289855079
0.23703899999999986,11661.80758017506
0.5069949999999998,8968.609865470813
0.5077479999999998,23323.615160351063
0.5078869999999998,18099.547511314573
0.5080909999999997,23880.59701492721
0.5083289999999997,42328.042328043506
0.5084259999999997,37914.69194313493
0.5085179999999997,32786.88524589869
0.5086369999999997,35874.43946186986
0.5087619999999997,32258.064516125654
0.5088599999999998,26490.066225163417
0.5090099999999997,31496.062992115134
0.5091619999999998,39800.99502487429
0.5092639999999998,35555.555555568244
0.5093629999999998,20565.552699230237
0.5094889999999997,17977.52808988648
0.5097519999999998,20151.133501260425
0.5099339999999998,19801.980198021763
0.5101489999999997,26936.026936027687
0.5103379999999997,32520.3252032562
0.5104459999999997,32786.88524589869
0.5105839999999997,36697.24770641335
0.5106899999999998,36363.636363636695
0.5108019999999998,33057.85123967427
0.5109099999999998,32388.6639676117
0.5110439999999997,35874.43946186986
0.5111569999999998,36363.636363618345
0.5112669999999998,36036.03603602703
0.5113769999999999,36036.03603602703
0.5114889999999999,36529.68036528342
0.5115989999999999,35242.29074890222
0.5117079999999999,34632.034632037445
0.5118259999999999,36199.09502262006
0.5119389999999999,35242.29074890222
0.5120469999999999,35087.719298244694
0.5121659999999999,36363.636363636695
0.5122749999999999,34934.49781660552
0.5123859999999999,34782.608695659364
0.5125039999999998,35242.29074890222
0.5126159999999998,35398.230088503646
0.5127309999999998,35242.29074890222
0.5128419999999998,34632.034632037445
0.5129579999999998,35087.719298244694
0.5130729999999998,35242.29074890222
0.5131859999999998,35087.71929826178
0.5132999999999998,34632.034632037445
0.5134139999999997,34934.49781658859
0.5135309999999997,35242.29074890222
0.5136429999999997,34632.034632037445
0.5137579999999997,30651.340996173785
0.5138739999999997,30888.030888043028
0.5140189999999997,21680.216802170802
0.5141329999999996,17467.248908298527
0.5143879999999996,13864.818024264905
0.7000209999999994,16842.10526315778
0.7002259999999995,19138.755980859896
0.7004959999999995,22988.505747125448
0.7006439999999995,21276.595744684702
0.7008439999999995,22922.636103156285
0.7010199999999994,22408.963585437898
0.7011929999999994,23880.59701492721
0.7013769999999994,26229.508196721337
0.7015279999999994,21978.021978020108
0.7016819999999994,15968.06387225279
0.7018919999999994,16736.401673637036
0.7021829999999994,19093.078758947227
0.7023699999999995,12139.6054628231
2.0163129999999994,9501.18764845595
2.030014999999999,8501.59404888745
2.094297999999999,8088.9787664296855
2.094970999999999,9184.84500573983
2.0981409999999987,9650.180940893008
2.0996649999999986,8255.9339525284
2.1000059999999987,8196.7213114784
2.106722999999999,9216.589861750186
2.1115539999999986,8574.490889600722
2.115461999999999,8465.60846561069
2.118831999999999,9324.009324013874
2.1192339999999987,8000.000000000881
2.121308999999999,8820.286659314355
2.121751999999999,9334.889148192611
2.131027999999999,8583.690987123036
2.142334999999999,9334.889148192611
2.142864999999999,8298.755186720382
2.1995249999999986,9467.455621301948
2.2144099999999987,10914.051841748145
2.2359889999999982,8146.639511201311
2.2369709999999983,9184.84500573983
2.2375239999999983,9828.009828008711
2.2378419999999983,9411.764705879701
2.2383379999999984,13157.894736838556
2.2386919999999986,11049.723756906888
2.2414029999999987,8072.653884964974
2.2841219999999978,9815.950920242602
2.2925169999999984,10309.278350514003
2.301882999999998,9815.950920247951
2.303664999999998,13114.754098360669
2.303957999999998,11577.424023158615
2.304274999999998,10840.108401088663
2.3071599999999974,11976.047904189592
2.3093749999999975,8088.9787664296855
2.3099979999999976,11188.811188810858
2.3103639999999976,9803.921568628317
2.3132029999999975,9828.009828008711
2.3168119999999974,11065.006915632273
2.3225399999999974,9029.345372461084
2.323081999999997,10165.18424396035
2.3270859999999973,9779.951100247328
2.3313309999999974,8583.690987123036
2.334215999999998,8130.08130081405
2.3390219999999977,9535.160905839897
2.3398609999999977,8154.9439347576
2.340446999999998,9367.681498825152
2.340841999999998,8676.789587851654
3.6608119999999924,8403.361344535291
4.434526999999995,8008.008008006452
4.619267999999996,8024.072216650637
4.740803999999997,9478.672985783733
4.91121,14109.347442675644
4.911402,8928.57142857135
5.408973,28571.428571422653
5.409133,37914.69194309503
5.409253,43243.24324321946
5.409344,41666.666666624995
5.409438,42780.74866301437
5.409536,37558.6854460844
5.409625,37037.03703703807
5.409749,42328.04232789432
5.409841,41025.64102551241
5.409938,41884.81675391525
5.410036000000001,37914.69194325463
5.410129,36866.35944713278
5.410247,41025.64102569927
5.410346,41025.64102569927
5.410442,41237.11340215041
5.410540999999999,41666.666666624995
5.410635999999999,40816.326530640785
5.410733,40609.137055837
5.410831999999999,41025.64102551241
5.41093,41025.64102551241
5.411027,41025.64102551241
5.411125,40609.137055837
5.411222,40000.00000009323
5.411322,40609.137055837
5.411422,41025.64102551241
5.411519,40609.137055837
5.411617000000001,40404.040404192565
5.411716,40000.00000009323
5.411815,40404.04040401132
5.411916,40404.04040401132
5.412013,39800.99502494024
5.412114,40201.00502524803
5.412214,40000.00000009323
5.412312999999999,39800.99502494024
5.412413999999999,40000.00000009323
5.412513999999999,40201.00502524803
5.412613999999999,40000.00000009323
5.412712999999998,39800.99502494024
5.412813999999998,40000.00000009323
5.412913999999998,39800.99502494024
5.413013999999998,39408.86699508297
5.413114999999998,39603.96039607618
5.413216999999998,40000.00000009323
5.4133169999999975,39408.86699508297
5.413416999999997,39408.86699508297
5.4135199999999974,39603.96039607618
5.413619999999997,39408.86699508297
5.413721999999997,39408.86699508297
5.413822999999997,39215.68627449193
5.413924999999997,39215.68627449193
5.414026999999997,39215.68627449193
5.414128999999997,38834.951456240444
5.414230999999997,39215.68627449193
5.414334999999998,39408.86699508297
5.4144349999999974,39215.68627449193
5.414537999999998,39024.39024385813
5.4146389999999975,39024.39024385813
5.414742999999998,39024.39024385813
5.414843999999998,39024.39024385813
5.414947999999998,34782.608695625786
5.415048999999998,34334.76394841035
5.415177999999998,38647.34299507343
5.415281999999999,39215.68627449193
5.415384999999999,38834.951456407885
5.415485999999999,38461.53846158212
5.415590999999998,39024.39024385813
5.4156939999999985,34632.03463198751
5.4157959999999985,34188.03418805677
5.415924999999999,38461.53846158212
5.416029999999998,38095.238095230205
5.4161329999999985,37735.84905670437
5.416239999999998,39024.39024402721
5.416344999999998,30888.03088805627
5.416444999999998,27491.408934724986
5.495766999999998,8032.128514050878
5.574738999999997,8281.573498964612
5.575244999999996,8510.638297872876
5.580424999999995,9029.345372456559
5.5853429999999955,8032.128514050878
5.589102999999996,8080.808080809515
5.597689999999996,8978.675645340325
5.668276999999997,8791.208791206971
5.668993999999997,14159.292035400067
5.669186999999997,12307.692307704174
5.669558999999997,11816.838995575761
5.669836999999997,11747.43024963024
5.6702359999999965,14010.507880891904
5.670517999999997,14492.753623168082
5.670806999999997,14571.94899816909
5.671069999999998,11477.761836446412
5.671355999999998,8948.545861300257
5.671766999999997,8667.388949076938
5.672249999999997,11396.011396004506
5.672689999999998,18306.63615561484
5.672951999999998,12461.059190030543
5.673126999999997,8064.516129031414
5.6843809999999975,8918.61761426832
5.744629999999998,10709.504685413904
5.755816999999999,9876.543209882233
5.760401999999998,13377.92642140248
5.7665359999999986,12718.60095389526
5.766767999999998,9334.889148182936
5.768675999999999,9888.751545124842
8.477382000000002,25889.967637568046
8.477558000000002,40201.0050250686
8.477691000000002,47058.82352922641
8.477757000000002,45714.28571416024
8.477861000000003,56737.58865277176
8.477932000000003,40000.00000009323
8.478002000000002,26936.026936047827
8.478132000000002,11799.410029518605
8.478299000000002,11560.693641634756
8.478810000000001,19230.76923079106
8.478991,25078.36990601177
8.479226,42328.042328292155
8.47931,41884.81675411002
8.479415,46783.62573101571
8.479500999999999,46783.62573101571
8.479586,46511.627907200425
8.479671999999999,45977.01149439758
8.479757999999999,45714.28571416024
8.479845999999998,45454.54545461469
8.479932999999999,45197.74011325391
8.480021999999998,44943.820224716204
8.480109999999998,44943.820224716204
8.480199999999998,44943.820224716204
8.480287999999998,44692.73743035159
8.480377999999998,44444.44444481119
8.480466999999997,43956.04395633517
8.480557999999997,43715.846994577994
8.480648999999996,43478.260869364334
8.480740999999997,43956.04395590615
8.480832999999997,43956.04395590615
8.480922999999997,43478.260869364334
8.481014999999998,43715.846994577994
8.481106999999998,43243.24324321946
8.481197999999997,42553.19148904272
8.481291999999998,43715.846994577994
8.481385999999999,43715.846994577994
8.481474999999998,42553.19148904272
8.481568999999999,43243.24324321946
8.481663,38461.53846174635
8.481753999999999,34334.76394854123
8.481870999999998,34482.75862062217
8.481986999999998,21563.34231809097
8.578295999999998,9291.521486638638
8.578679999999999,8333.333333340419
8.674187999999997,42780.74866301437
8.674291999999998,47619.04761893706
8.674374999999998,47058.82352922641
8.674459999999998,46783.62573101571
8.674544999999998,45977.01149439758
8.674630999999998,45714.28571416024
8.674718999999998,45454.54545461469
8.674805999999998,45197.74011325391
8.674894999999998,44692.73743035159
8.674982999999997,44198.89502773599
8.675073999999997,44692.73743035159
8.675163999999997,44692.73743035159
8.675252999999996,44444.44444437258
8.675342999999996,43956.04395590615
8.675432999999996,43956.04395590615
8.675524999999997,43956.04395590615
8.675614999999997,43243.24324321946
8.675706999999997,43010.752688321576
8.675799999999997,43243.24324321946
8.675892999999997,43478.260869364334
8.675984999999997,43010.75268791081
8.676076999999998,43010.75268791081
8.676170999999998,42780.74866301437
8.676262999999999,42553.19148944479
8.676357999999999,43243.24324321946
8.676450999999998,43010.75268791081
8.676542999999999,42328.04232789432
8.676637,42780.74866301437
8.676732,42780.74866301437
8.676824,42328.04232789432
8.676919,42553.19148904272
8.677013,42105.26315791414
8.677107000000001,42105.26315791414
8.677203,42553.19148904272
8.677297000000001,42328.04232789432
8.677391000000002,42105.26315791414
8.677486000000002,42328.04232789432
8.677581000000002,42105.26315791414
8.677675000000002,41666.66666701049
8.677771000000002,42105.26315791414
8.677867,37735.84905638818
8.677961000000002,30769.230769134305
8.678079000000002,27972.027971940275
8.678221000000002,24169.184289959427
8.867450000000003,22038.567493106075
8.867609000000003,21505.376344058095
8.867813000000003,31999.999999847205
8.867981000000004,48192.77108430527
8.868063000000005,47337.27810660925
8.868147000000004,46511.627906720074
8.868232000000004,45977.0114939282
8.868319000000005,45714.28571416024
8.868406000000006,45197.74011325391
8.868494000000005,44692.73743035159
8.868583000000005,44444.44444437258
8.868673000000005,44198.89502773599
8.868763000000005,44198.89502773599
8.868854000000004,43956.04395590615
8.868944000000004,43715.846994577994
8.869036000000005,43478.26086978408
8.869127000000004,43010.752688321576
8.869220000000004,43243.24324321946
8.869313000000004,43243.24324321946
8.869405000000004,42780.74866301437
8.869498000000004,42780.74866301437
8.869592000000004,43010.752688321576
8.869685000000004,42328.042328292155
8.869778000000004,42105.26315791414
8.869874000000003,41884.81675372047
8.869968000000004,41666.666666624995
8.870065000000004,41666.666666624995
8.870160000000004,41666.666666624995
8.870257000000004,41884.81675411002
8.870352000000004,41450.77720219203
8.870448000000003,41237.113401961615
8.870545000000003,41450.77720219203
8.870642000000004,41237.1134023392
8.870738000000003,40816.32653082575
8.870836000000002,41237.1134023392
8.870934000000002,41237.1134023392
8.871030000000001,40816.32653082575
8.871128,40816.32653082575
8.871226,40816.32653082575
8.871324,40609.137055837
8.871421999999999,40404.040403830084
8.871521,40404.040403830084
8.87162,40404.040403830084
8.871719,40201.0050250686
8.871818000000001,40201.0050250686
8.871918,40201.0050250686
8.872017000000001,40201.0050250686
8.872117000000001,40404.040403830084
8.872216000000002,40404.040403830084
8.872315000000002,40816.32653045582
8.872414000000003,40609.137055837
8.872511000000003,40816.32653082575
8.872611000000003,40816.32653082575
8.872707000000002,40404.040404192565
8.872807000000002,36199.095022656424
8.872905000000001,27027.027026979722
9.092540000000001,34632.03463185435
9.092644000000002,37735.84905638818
9.092771000000003,42328.04232789432
9.092856000000003,41666.666666624995
9.092960000000003,45977.01149439758
9.093048000000003,45977.01149439758
9.093134000000003,45454.54545461469
9.093222000000003,44943.820224716204
9.093310000000002,44692.73743035159
9.093400000000003,44444.44444481119
9.093489000000002,43715.846994577994
