Time,Frequency
0.11594199999999999,68965.51724137635
0.11599999999999999,68376.06837606488
0.116058,67226.890756298
0.116117,66115.70247933338
0.116177,65040.65040649773
0.11623800000000001,63492.06349206293
0.11630000000000001,62015.503875973685
0.11636400000000001,61068.70229007996
0.116429,60150.37593985223
0.116495,58823.5294117659
0.116562,57971.014492753944
0.116631,57553.95683453228
0.1167,56737.58865248137
0.11677,55555.55555555354
0.116841,54794.52054794249
0.116914,54054.054054050684
0.11698700000000001,53333.33333332934
0.11706200000000001,52980.13245032683
0.11713700000000002,52287.58169934628
0.11721300000000003,51612.90322581029
0.11729000000000002,50632.91139240779
0.11736800000000001,49689.44099379052
0.11744800000000001,49079.75460122805
0.11752900000000001,48484.84848484893
0.11761100000000001,47619.047619047196
0.11769400000000001,46783.62573099293
0.11777900000000001,45977.011494250895
0.11786500000000001,45197.740112991676
0.11795300000000002,44692.73743016448
0.11804200000000002,44444.44444444111
0.11813200000000003,43956.04395604357
0.11822200000000004,43478.260869567646
0.11831400000000003,43243.24324324541
0.11840600000000003,42780.748663103266
0.11849900000000002,42328.042328043506
0.11859300000000002,41884.81675392742
0.11868800000000002,41666.66666666716
0.11878400000000001,41450.777202072815
0.11888000000000001,41025.64102564087
0.11897700000000001,41025.64102564087
0.11907500000000001,41025.64102564087
0.11917200000000001,40609.137055837
0.11927000000000001,40404.040404039646
0.11936900000000002,40201.00502512467
0.11946800000000002,39800.99502487429
0.11956800000000002,39603.96039603809
0.11966900000000003,39408.866995072196
0.11977000000000003,39215.686274507934
0.11987200000000003,39215.686274507934
0.11997400000000004,39024.390243900394
0.12007600000000004,38834.95145630847
0.12017900000000005,38647.342995166706
0.12028200000000006,38277.51196172233
0.12038600000000006,38277.51196172233
0.12049100000000006,38277.51196172233
0.12059500000000006,37914.69194312995
0.12070000000000006,37914.69194312995
0.12080600000000005,37735.849056605555
0.12091100000000005,37558.68544601098
0.12101800000000004,37558.68544601098
0.12112400000000004,37383.17757009486
0.12123100000000003,37383.17757009486
0.12133800000000003,37383.17757009486
0.12144500000000003,37209.30232558261
0.12155200000000002,37209.30232558261
0.12166000000000002,37209.30232558261
0.12176700000000001,37037.03703703807
0.12187500000000001,37037.03703703807
0.12198300000000001,37037.03703703807
0.122091,37037.03703703807
0.122199,36866.35944700546
0.122307,36866.35944700546
0.122416,37037.03703703807
0.122524,37037.03703703807
0.12263199999999999,37037.03703703807
0.12273999999999999,37037.03703703807
0.12284799999999998,37037.03703703807
0.12295599999999998,36866.35944700546
0.12306399999999998,36866.35944700546
0.12317299999999998,36866.35944700546
0.12328099999999997,36866.35944700546
0.12338999999999997,36866.35944700546
0.12349799999999997,36363.636363636695
0.12360699999999997,35874.43946188325
0.12371799999999997,28673.835125447877
0.12382999999999997,21917.80821917783
0.12399699999999997,11396.011396011263
0.12469899999999998,12030.075187969442
0.125267,21447.721179623964
0.23258199999999998,39999.99999999886
0.23271899999999998,62015.50387596034
0.232782,62015.50387596034
0.232848,61068.70229006702
0.232911,59701.49253730319
0.23297900000000002,60150.37593983968
0.23304500000000003,59259.25925924873
0.23311200000000004,58394.16058393053
0.23318000000000005,57553.95683453228
0.23324900000000007,56338.02816902381
0.23331900000000005,55555.55555556424
0.23339100000000004,55172.413793111635
0.23346300000000003,54054.05405406082
0.23353600000000002,52980.13245033657
0.233611,51948.05194805617
0.233687,51282.05128205474
0.233765,50955.414012741945
0.233843,50632.91139240779
0.233922,50000.00000000204
0.234001,49079.75460122805
0.23408199999999998,48780.4878048788
0.23416399999999998,48192.7710843375
0.23424599999999998,46783.62573099293
0.23432999999999998,45454.545454543004
0.234417,44943.820224716204
0.234506,45197.740112991676
0.234595,45454.545454543004
0.234683,45197.740112991676
0.234771,44692.73743016448
0.23486,44198.895027620776
0.23495000000000002,43956.043956040216
0.23504100000000003,43478.26086956108
0.23513200000000004,43010.75268816754
0.23522500000000005,42780.74866309692
0.23531800000000005,42553.19148935684
0.23541200000000007,42105.26315788953
0.23550600000000008,41666.666666661135
0.2356020000000001,41450.77720206685
0.2356980000000001,41025.64102564087
0.23579500000000012,40816.32653061766
0.2358930000000001,40609.13705584272
0.2359910000000001,40201.00502513028
0.23609000000000008,40000.0000000044
0.23619000000000007,40000.0000000044
0.23629000000000006,39603.96039604353
0.23639000000000004,39408.86699507759
0.23649200000000004,39408.86699507759
0.23659300000000003,39024.390243905684
0.23669500000000002,38834.9514563137
0.236798,38834.9514563137
0.236901,38647.342995171886
0.237004,38461.53846154106
0.23710799999999999,38461.53846154106
0.23721199999999998,38461.53846154106
0.23731599999999997,38277.51196172487
0.23741999999999996,38095.238095240275
0.23752499999999996,37914.69194312995
0.23762999999999995,37914.69194312995
0.23773599999999995,37914.69194312995
0.23784099999999994,37558.68544601098
0.23794699999999994,37558.68544601098
0.23805399999999993,37558.68544601098
0.23815999999999993,37383.17757009486
0.23826699999999992,37383.17757009486
0.23837399999999992,37383.17757009486
0.23848099999999992,37383.17757009486
0.2385879999999999,37383.17757009486
0.2386949999999999,37209.30232558261
0.2388019999999999,37209.30232558261
0.2389099999999999,37209.30232558261
0.2390169999999999,36866.35944700546
0.2391249999999999,37037.03703703807
0.2392339999999999,37037.03703703807
0.2393409999999999,36866.35944700546
0.23944999999999989,37037.03703703807
0.23955799999999988,36866.35944700546
0.23966599999999988,36866.35944700546
0.23977499999999988,36866.35944700546
0.23988299999999987,36697.2477064227
0.23999199999999987,36866.35944700546
0.24010099999999987,36866.35944700546
0.24020899999999987,36529.68036529731
0.24031799999999987,36529.68036529731
0.24042799999999986,36697.2477064227
0.24053699999999986,36697.2477064227
0.24064599999999986,36697.2477064227
0.24075499999999986,36529.68036529731
0.24086399999999986,36363.636363636695
0.24097399999999985,36199.0950226246
0.24108399999999985,36036.03603603604
0.24119499999999985,36363.636363636695
0.24130599999999985,21978.021978021785
0.35658099999999987,65040.6504065124
0.3566409999999999,62992.12598425781
0.35670399999999985,62015.503875973685
0.35676799999999986,60606.060606076455
0.35683299999999984,58823.529411777905
0.35689999999999983,57553.95683453228
0.3569689999999998,56737.58865248137
0.35703899999999983,55944.055944054286
0.3571099999999998,55172.41379310108
0.35718199999999983,54054.05405406082
0.3572549999999998,53333.33333333921
0.3573299999999998,52631.57894737345
0.3574049999999998,51612.90322580105
0.3574819999999998,51282.05128203649
0.3575599999999998,50632.91139239001
0.35763799999999984,49079.7546012197
0.35771799999999987,47337.27810651596
0.35780099999999987,46783.62573100052
0.35788699999999984,46511.62790697526
0.35797199999999985,46242.774566479675
0.35805899999999985,45977.011494265564
0.3581449999999998,45197.74011299876
0.3582329999999998,44692.73743017141
0.3583219999999998,44198.89502762755
0.3584119999999998,43478.26086956108
0.3585029999999998,42780.748663103266
0.3585959999999998,42553.191489369405
0.3586899999999998,42105.263157901834
0.35878399999999977,41666.66666667318
0.35887999999999975,41666.66666667318
0.35897599999999974,41450.777202072815
0.3590719999999997,41237.11340205601
0.35916899999999974,40816.32653060611
0.35926599999999975,40609.137055837
0.35936499999999977,40404.04040404531
0.35946299999999975,40201.00502512467
0.35956299999999974,39999.999999993306
0.35966199999999976,39603.96039603265
0.3597629999999998,39800.99502487429
0.3598639999999998,39603.96039604353
0.3599639999999998,39215.68627451327
0.3600659999999998,39024.390243900394
0.36016799999999977,38834.951456303235
0.3602709999999998,38647.342995166706
0.3603739999999998,38461.53846154106
0.3604779999999998,38277.51196171979
0.3605819999999998,38095.238095230205
0.3606869999999998,37914.691943124955
0.36079199999999984,37558.685446006086
0.36089799999999983,37383.177570085165
0.36100499999999985,37383.177570085165
0.3611119999999999,37209.30232557781
0.3612189999999999,37037.03703703807
0.3613269999999999,37037.03703703807
0.3614349999999999,36866.359447000745
0.3615429999999999,36697.24770641335
0.3616519999999999,36697.24770641335
0.36176099999999994,36697.24770641335
0.36186999999999997,36529.680365292676
0.361979,36199.09502262006
0.362089,36199.09502262006
0.3622,36199.09502262006
0.36231,36199.09502262006
0.36242100000000005,36199.09502262006
0.36253100000000005,36036.03603602703
0.3626420000000001,35874.439461878785
0.3627530000000001,35874.439461878785
0.3628650000000001,35874.439461878785
0.36297600000000013,35874.439461878785
0.36308800000000013,35874.439461878785
0.36319900000000016,35714.2857142854
0.36331100000000016,35874.439461878785
0.36342300000000016,35874.439461878785
0.3635340000000002,35874.439461878785
0.3636460000000002,35874.439461878785
0.3637570000000002,35874.439461878785
0.3638690000000002,35874.439461878785
0.36398000000000025,35874.439461878785
0.36409200000000025,35874.439461878785
0.3642030000000003,35714.2857142854
0.3643150000000003,35714.2857142854
0.3644270000000003,35714.2857142854
0.3645390000000003,35555.55555555947
0.3646510000000003,35555.55555555947
0.36476400000000025,34782.60869565097
0.36487600000000026,35242.290748893596
0.36499400000000026,27972.027972027143
0.4805540000000003,23738.8724035586
0.4808150000000003,52287.58169934154
0.48089100000000035,50632.91139240779
0.48096800000000034,50314.46540879863
0.48104900000000034,49999.99999998469
0.48112700000000036,48484.848484840775
0.4812090000000004,48484.848484840775
0.4812920000000004,37735.849056595674
0.4813740000000004,37209.30232557781
0.48150400000000043,46783.62573100052
0.48158900000000043,45977.011494265564
0.4816750000000004,45714.28571429075
0.4817630000000004,45454.545454543004
0.4818500000000004,44943.820224716204
0.4819390000000004,44692.73743017141
0.4820280000000004,44444.44444445482
0.4821180000000004,44198.89502762755
0.48220800000000036,39024.390243900394
0.4839980000000004,35398.23008849495
0.48412100000000036,39024.390243900394
0.4842240000000004,39024.390243900394
0.48432600000000037,39024.390243900394
0.4844290000000004,38647.342995166706
0.4845310000000004,38095.238095230205
0.4846360000000004,38277.51196171979
0.4847410000000004,38461.53846154106
0.4848450000000004,38277.51196171979
0.4849490000000004,37914.691943124955
0.48505400000000043,37735.849056605555
0.4851600000000004,37914.691943124955
0.4852660000000004,37735.849056595674
0.48537100000000044,37383.177570085165
0.48547800000000046,37383.177570085165
0.4855850000000005,37383.177570085165
0.4856920000000005,37383.177570085165
0.48579900000000054,37037.03703702855
0.48590600000000056,37037.03703702855
0.4860150000000006,37037.03703702855
0.4861220000000006,37037.03703702855
0.48623100000000063,37037.03703702855
0.48633800000000066,36697.24770641335
0.4864470000000007,36697.24770641335
0.4865560000000007,36697.24770641335
0.48666500000000074,36529.680365292676
0.48677400000000076,36529.680365292676
0.48688400000000076,36697.24770641335
0.4869930000000008,36529.680365292676
0.4871020000000008,36529.680365292676
0.4872120000000008,36529.680365292676
0.48732100000000084,36363.636363636695
0.48743100000000084,36199.09502262006
0.48754100000000083,36363.63636362752
0.48765200000000086,36529.680365292676
0.4877610000000009,36199.09502262006
0.4878710000000009,36036.03603602703
0.4879820000000009,36036.03603602703
0.48809300000000094,36363.63636362752
0.48820400000000097,36529.680365292676
0.488313000000001,36199.09502262006
0.488423000000001,36199.09502262006
0.488534000000001,36363.636363636695
0.488644000000001,36363.636363636695
0.488754000000001,36363.636363636695
0.488864000000001,36529.680365292676
0.488974000000001,36199.09502262006
0.48908300000000104,35874.439461878785
0.48919500000000105,32258.064516125654
0.4893060000000011,26315.789473686724
0.6037340000000011,61068.70229007996
0.6037970000000011,45977.011494250895
0.6038650000000011,45714.28571427625
0.6039710000000011,57142.85714284531
0.6040400000000011,55944.055944054286
0.6041110000000012,55172.4137931222
0.6041830000000011,54421.76870747995
0.6042560000000011,53333.33333333921
0.6043300000000011,52287.58169936051
0.6044060000000011,51282.05128203649
0.6044830000000011,50314.46540879863
0.6045620000000012,49689.440993799086
0.6046420000000011,49382.71604938409
0.6047230000000011,48484.84848485709
0.6048040000000011,47619.047619062934
0.6048880000000011,47058.8235294108
0.6049720000000011,46511.62790696025
0.6050580000000011,45977.011494250895
0.6051440000000011,45197.74011299876
0.6052320000000011,44692.737430157555
0.6053210000000011,44198.89502762755
0.6054110000000011,43715.84699455147
0.6055020000000011,43010.75268816754
0.6055940000000011,42553.19148934427
0.6056880000000011,42105.26315788953
0.6057820000000012,41666.66666667318
0.6058780000000011,41450.777202072815
0.6059740000000011,41237.11340205601
0.6060710000000011,41237.11340205601
0.6061680000000012,41025.64102562919
0.6062650000000012,40609.137055837
0.6063630000000012,40201.005025135884
0.6064620000000012,40201.005025135884
0.6065620000000012,40000.0000000044
0.6066610000000011,39603.96039603265
0.6067620000000011,39603.96039603265
0.6068630000000012,39408.86699506142
0.6069640000000012,39024.390243900394
0.6070660000000012,38834.95145632417
0.6071690000000012,38834.95145632417
0.6072720000000011,38834.95145632417
0.6073750000000011,38461.53846154106
0.6074780000000011,37914.69194311498
0.6075830000000011,37914.69194311498
0.6076890000000011,38095.238095230205
0.6077940000000012,37914.69194311498
0.6078990000000012,37383.177570085165
0.6080050000000012,37209.302325587414
0.6081130000000012,37383.177570104555
0.6082200000000012,37209.302325587414
0.6083270000000012,37037.03703703807
0.6084350000000012,36866.359447000745
0.6085430000000012,36529.68036528342
0.6086520000000012,36529.68036528342
0.6087620000000012,36529.68036528342
0.6088710000000013,36199.09502262006
0.6089810000000013,36199.09502262006
0.6090920000000013,36199.09502262006
0.6092020000000014,36036.03603604505
0.6093130000000013,36036.03603604505
0.6094240000000013,35874.43946188772
0.6095350000000013,35714.2857142854
0.6096470000000013,35714.2857142854
0.6097590000000013,35555.5555555507
0.6098710000000013,35555.5555555507
0.6099840000000013,35555.5555555507
0.6100960000000013,35555.5555555507
0.6102090000000013,35555.5555555507
0.6103210000000013,35398.230088486256
0.6104340000000014,35398.230088486256
0.6105470000000014,35398.230088486256
0.6106600000000014,35398.230088486256
0.6107730000000015,35398.230088486256
0.6108860000000015,35398.230088486256
0.6109990000000015,35398.230088486256
0.6111120000000015,35398.230088486256
0.6112250000000016,35398.230088486256
0.6113380000000016,35398.230088486256
0.6114510000000016,35398.230088486256
0.6115640000000017,35242.29074890222
0.6116770000000017,35398.230088503646
0.6117910000000016,35398.230088503646
0.6119030000000016,35242.29074890222
0.6120170000000016,35087.719298244694
0.6121300000000016,35242.29074890222
0.6122450000000016,31372.549019607202
0.6123570000000016,9535.160905839897
0.7278490000000016,46511.627906990274
0.7279440000000016,40000.0000000044
0.7280210000000016,25559.105431309275
0.7281440000000016,20725.388601036408
0.7283340000000016,28368.794326240684
0.7285300000000016,46242.774566479675
0.7286160000000016,46242.774566479675
0.7287030000000015,45454.54545452867
0.7287890000000016,44444.44444442741
0.7288790000000016,44444.44444442741
0.7289690000000016,43478.26086954797
0.7290590000000017,43243.24324324541
0.7291530000000017,43715.84699455147
0.7292440000000017,42780.74866311597
0.7293360000000016,42105.26315791414
0.7294310000000016,30418.250950581652
0.7295260000000016,27874.564459937483
0.7296940000000015,36866.359447000745
0.7298130000000015,41237.11340205601
0.7299110000000015,30418.250950568814
0.7300070000000015,25000.00000000102
0.7301740000000015,26666.666666669604
0.7303270000000015,29304.02930403277
0.7304740000000015,28469.750889682175
0.7306000000000015,28368.794326240684
0.7307550000000015,28070.17543859849
0.7308820000000015,27874.5644599267
0.7310400000000015,30651.340996160747
0.7311690000000015,30418.250950568814
0.7313010000000015,21505.37634408377
0.7314320000000015,19999.999999996653
0.7316730000000016,24767.801857579525
0.7318320000000016,24316.10942249065
0.7319960000000016,22471.910112358102
0.7321610000000016,21164.02116401554
0.7323520000000017,17353.579175703308
0.7325390000000017,15180.265654650564
0.7328130000000017,19184.652278177426
0.7330660000000017,16985.138004246313
0.7332300000000017,11922.50372578282
0.7335370000000017,11412.268188301405
0.7339010000000017,12903.225806450262
0.7342380000000017,18867.924528302778
0.7345210000000018,25559.10543131834
0.7346620000000017,20050.125313286866
0.7348340000000017,15533.980582526317
0.7350610000000016,17582.41758241823
0.7353490000000016,17543.859649122347
0.7355160000000016,11611.030478956023
0.7358050000000016,12084.592145016193
0.7362050000000016,14598.54014598559
0.7364670000000015,13355.592654423679
0.7367530000000015,9090.909090909174
0.7430620000000016,9456.264775414802
0.8410150000000015,36036.03603602703
0.8411660000000015,57142.85714284531
0.8412370000000016,44198.89502762755
0.8413060000000016,42553.191489369405
0.8414180000000016,53333.33333333921
0.8414940000000015,52631.578947354225
0.8415680000000015,51948.05194805617
0.8416460000000016,51612.90322580105
0.8417220000000015,50632.91139237222
0.8418010000000016,50314.46540879863
0.8418800000000016,49382.71604938409
0.8419600000000016,48780.487804862285
0.8420420000000016,48484.84848482446
0.8421240000000016,48484.84848482446
0.8422070000000017,47619.047619031466
0.8422890000000017,47058.8235294108
0.8423750000000018,47337.27810651596
0.8424590000000017,46242.774566479675
0.8425440000000017,46242.774566479675
0.8426320000000017,45714.28571427625
0.8427170000000017,33057.85123965911
0.8428070000000017,11220.19635343501
0.8429590000000018,11396.011396011714
0.8435200000000018,34334.76394850851
0.8436610000000018,38277.51196171979
0.8437530000000018,37558.685446006086
0.8438700000000018,41884.816753939594
0.8439660000000018,42105.26315791414
0.8440610000000017,41666.66666667318
0.8441560000000017,41237.11340205601
0.8442530000000017,40609.137055837
0.8443500000000017,40201.005025135884
0.8444500000000017,40404.040404056635
0.8445490000000017,40201.005025135884
0.8446480000000016,40000.0000000044
0.8447480000000016,40000.0000000044
0.8448480000000016,39800.99502487429
0.8449480000000016,39408.86699506142
0.8450490000000016,39215.68627449193
0.8451510000000017,39215.68627449193
0.8452530000000017,39215.68627449193
0.8453550000000017,39024.390243900394
0.8454570000000018,38461.53846154106
0.8455600000000018,18058.69074492217
0.8470580000000018,10958.904109588915
0.8474610000000018,13961.605584643825
0.8477880000000018,15444.015444014894
0.8480340000000017,17130.620985010883
0.8483060000000018,20725.388601036408
0.8485010000000017,19417.475728151618
0.8486920000000018,19230.76923077053
0.8489130000000018,16949.152542375865
0.8491080000000018,9313.154831199685
0.9376310000000017,9720.534629404403
0.9377650000000016,10416.666666665284
0.9384540000000017,50955.414012714915
0.9385330000000017,50955.414012714915
0.9386110000000017,49382.71604935025
0.9386900000000018,49079.7546012197
0.9387730000000019,49382.71604938409
0.9388530000000018,48780.487804862285
0.9389350000000019,48192.7710843375
0.9390170000000019,47619.047619062934
0.9391010000000019,47619.047619062934
