Time,Frequency
8.9e-05,44444.444444444445
0.000179,44444.44444444445
0.000269,43956.04395604396
0.00035899999999999994,43478.26086956521
0.00045099999999999996,43243.24324324325
0.000543,43010.75268817205
0.000636,42780.74866310161
0.0007289999999999999,42328.04232804232
0.000823,42105.263157894726
0.000918,41884.81675392671
0.001013,41450.77720207253
0.001109,41237.11340206182
0.001206,41025.64102564101
0.0013030000000000001,40816.32653061225
0.0014010000000000001,40609.137055837586
0.0014990000000000001,40404.04040404044
0.001598,40201.00502512564
0.001697,39999.999999999985
0.001797,39800.99502487558
0.001897,39603.960396039576
0.001998,39603.96039603962
0.002099,39408.866995073884
0.0022,39024.39024390246
0.0023020000000000002,39024.39024390246
0.002405,39024.39024390246
0.002507,38834.95145631076
0.00261,38647.342995169136
0.0027129999999999997,38461.53846153849
0.0028169999999999996,38277.51196172249
0.0029209999999999996,38095.23809523808
0.0030259999999999996,38095.23809523808
0.0031309999999999997,38095.23809523808
0.0032359999999999997,37735.84905660378
0.003341,37735.84905660378
0.0034479999999999997,37914.69194312792
0.0035529999999999997,37914.69194312792
0.003659,37037.03703703703
0.003764,37383.177570093496
0.003875,33195.02074688798
0.003978,32653.06122448974
0.004116,37383.17757009334
0.004223,37383.17757009334
0.0043300000000000005,37037.03703703703
0.004437000000000001,32786.885245901714
0.0045460000000000006,26755.852842809385
0.004681,24024.024024024027
0.004845,23880.597014925355
0.005014,29739.776951672848
0.005180000000000001,33195.02074688798
0.005283,32786.8852459016
0.0054210000000000005,22988.505747126423
0.005527000000000001,23529.41176470588
0.005769000000000001,38834.95145631076
0.005867000000000001,29304.029304029325
0.005975,29304.029304029325
0.0061400000000000005,29850.746268656716
0.006248,18223.234624145778
0.0064080000000000005,19656.019656019685
0.006687,29962.546816479415
0.006815,33195.02074688798
0.006954,39800.995024875665
0.007056,39603.96039603962
0.007155,38834.95145631076
0.007258,27681.66089965396
0.0073609999999999995,20618.55670103091
0.007547,18957.34597156396
0.007749,18691.58878504671
0.007969,25559.10543130998
0.008177,37914.69194312808
0.008282,28776.97841726614
0.008388,23598.820058996997
0.00856,30075.187969924744
0.008727,27586.206896551692
0.008826,11782.032400589089
0.009017,13266.998341625183
0.009505000000000001,35398.2300884955
0.009620000000000002,37037.037037037175
0.009731000000000002,33195.02074688798
0.009836000000000001,21978.02197802189
0.009972000000000002,23668.639053254334
0.010200000000000002,37037.037037036884
0.010310000000000003,38095.23809523808
0.010416000000000003,37735.84905660371
0.010520000000000003,22598.870056497166
0.010628000000000004,22857.14285714288
0.010874000000000003,38095.23809523808
0.010978000000000003,37037.037037036884
0.011084000000000004,28571.428571428496
0.011194000000000004,28880.866425992834
0.011364000000000004,36866.35944700458
0.011471000000000004,36866.35944700458
0.011581000000000004,37037.037037037175
0.011688000000000004,31746.031746031684
0.011797000000000004,31872.50996015921
0.011940000000000004,37209.30232558141
0.012048000000000005,37037.037037037175
0.012155000000000004,36363.63636363641
0.012264000000000004,36697.24770642211
0.012375000000000004,24242.42424242434
0.012482000000000004,22792.022792022864
0.012705000000000003,33755.27426160347
0.012833000000000002,28673.835125448055
0.012942000000000002,28673.835125448055
0.013112000000000002,37209.30232558141
0.013221000000000002,37209.30232558141
0.013327000000000002,36199.0950226246
0.013436000000000002,35555.555555555635
0.013548000000000001,35555.555555555635
0.013661000000000001,36199.0950226246
0.013773,36529.68036529673
0.013882,23529.41176470588
0.013992000000000001,18867.92452830193
0.014222,25974.025974026037
0.014416,35087.719298245764
0.01453,36036.03603603604
0.014643999999999999,36529.68036529673
0.014752,35874.43946188353
0.014863,35555.555555555635
0.014974999999999999,35874.43946188325
0.015087999999999999,23880.597014925355
0.015198,11764.70588235294
0.015423,12441.679626749588
0.015878,27027.027027026925
0.016066,37037.037037036884
0.016174,36529.68036529673
0.016282,17857.142857142837
0.017737000000000003,13961.605584642304
0.017871,9205.983889528212
0.202563,47337.27810650818
0.202648,46783.62573099293
0.202732,45977.011494250895
0.202819,46242.77456647225
0.202906,45977.011494250895
0.202992,45454.545454543004
0.20308,45197.740112991676
0.20316800000000002,44943.820224716204
0.20325700000000002,44692.73743016448
0.20334600000000003,44198.895027620776
0.20343600000000003,43956.043956040216
0.20352700000000004,43715.84699453158
0.20361800000000005,43478.26086956108
0.20371000000000006,43478.26086956108
0.20380200000000007,43010.75268816754
0.20389400000000008,42780.74866309692
0.20398800000000009,42780.74866309692
0.2040810000000001,42553.19148935684
0.2041750000000001,42328.04232803729
0.20426900000000012,42328.04232803729
0.20436400000000013,42105.26315788953
0.20445800000000014,41666.666666661135
0.20455400000000015,41666.666666661135
0.20465000000000017,41450.77720206685
0.20474600000000018,41237.11340205601
0.2048430000000002,41025.64102564087
0.2049400000000002,41025.64102564087
0.2050380000000002,41025.64102564087
0.2051350000000002,40816.32653061766
0.2052330000000002,40404.04040404531
0.20533100000000018,40404.04040404531
0.20543100000000017,40609.13705584272
0.20552900000000016,40201.00502513028
0.20562800000000014,40000.0000000044
0.20572800000000013,40000.0000000044
0.20582800000000012,40000.0000000044
0.2059280000000001,39800.99502487978
0.2060280000000001,39603.96039604353
0.2061290000000001,39603.96039604353
0.20623000000000008,39408.86699507759
0.20633100000000007,39215.68627451327
0.20643300000000006,39215.68627451327
0.20653500000000005,39215.68627451327
0.20663700000000004,39024.390243905684
0.20673900000000003,38834.9514563137
0.20684200000000003,38834.9514563137
0.20694500000000002,38834.9514563137
0.207048,38647.342995171886
0.207151,38647.342995171886
0.207255,38647.342995171886
0.207358,38461.53846154106
0.20746199999999998,38461.53846154106
0.20756599999999997,38461.53846154106
0.20766999999999997,38277.51196172487
0.20777399999999996,38095.238095240275
0.20787899999999995,37914.69194312995
0.20798399999999995,38095.238095240275
0.20808999999999994,37914.69194312995
0.20819399999999993,37558.68544601098
0.20830099999999993,37914.69194312995
0.20840699999999993,38095.238095240275
0.20851199999999992,37914.69194312995
0.2086169999999999,37383.17757009486
0.2087229999999999,37558.68544601098
0.2088309999999999,37914.69194312995
0.2089359999999999,37209.30232558261
0.2090419999999999,37209.30232558261
0.2091509999999999,37558.68544601098
0.2092569999999999,37383.17757009486
0.20936399999999988,37558.68544601098
0.20947099999999988,37383.17757009486
0.20957699999999987,36866.35944700546
0.20968499999999987,37037.03703703807
0.20979399999999987,37558.68544601098
0.20990099999999987,37558.68544601098
0.21000699999999986,37209.30232558261
0.21011399999999986,37383.17757009486
0.21022199999999985,37558.68544601098
0.21032799999999985,37209.30232558261
0.21043499999999984,37558.68544601098
0.21054299999999984,37914.69194312995
0.21064799999999984,37735.849056605555
0.21075399999999983,37914.69194312995
0.21085999999999983,38095.238095240275
0.21096499999999982,38277.51196172487
0.2110699999999998,38095.238095240275
0.2111739999999998,15473.887814313655
0.2116909999999998,11544.011544011557
0.2122829999999998,39215.68627451327
0.2123839999999998,38647.342995171886
0.2124869999999998,38461.53846154106
0.21259099999999978,21505.376344086977
0.21269499999999977,21680.21680216917
0.21296299999999976,38834.9514563137
0.21306399999999975,22792.02279202343
0.21316899999999975,15904.572564612217
0.21341499999999974,11080.332409972292
0.21367199999999975,11019.283746556406
0.21569999999999975,22988.50574712728
0.21580499999999975,21447.721179625558
0.5271549999999997,16806.7226890745
0.5274399999999997,25806.451612900524
0.5276309999999997,25316.455696203895
0.5277499999999997,23255.81395348763
0.5279469999999997,33057.85123967427
0.5280939999999997,41666.66666667318
0.5281889999999997,40609.137055837
0.5282859999999997,40201.005025135884
0.5283859999999997,40404.040404056635
0.5284849999999996,40609.137055837
0.5285839999999996,39999.9999999822
0.5286819999999997,39800.99502487429
0.5287839999999997,39800.99502487429
0.5288829999999997,39800.99502487429
0.5289849999999997,39603.96039605441
0.5290839999999997,39408.86699508297
0.5291869999999996,39603.96039603265
0.5292869999999996,39024.390243900394
0.5293889999999997,39215.68627451327
0.5294919999999996,39024.390243900394
0.5295929999999996,39215.68627451327
0.5296969999999996,39024.390243900394
0.5297969999999996,38277.51196171979
0.5299019999999997,38834.951456303235
0.5300059999999996,38834.951456303235
0.5301079999999997,38461.53846154106
0.5302119999999997,38461.53846154106
0.5303159999999997,34188.03418804055
0.5304199999999997,34188.03418804055
0.5305499999999996,25316.455696203895
0.5306539999999996,25236.593059935974
0.5308659999999996,38277.51196171979
0.5309709999999996,30534.35114503998
0.5310749999999996,30303.030303025484
0.5312329999999996,24999.999999992346
0.5313389999999997,22857.142857138126
0.5315529999999997,21505.37634408377
0.5316889999999997,16842.10526315778
