Time,Frequency
7.9e-05,49689.44099378883
0.000159,48780.487804878045
0.00023999999999999998,47619.04761904761
0.000323,46783.62573099416
0.000408,45714.285714285725
0.000494,44943.8202247191
0.000583,44198.89502762432
0.000672,43243.243243243254
0.0007639999999999999,42105.26315789475
0.0008569999999999999,41237.11340206187
0.0009539999999999999,40609.13705583756
0.0010509999999999999,39800.99502487562
0.001151,39408.866995073884
0.0012519999999999999,39024.39024390242
0.001354,38277.51196172249
0.001457,37735.84905660378
0.001563,37383.17757009346
0.001669,37037.03703703703
0.001777,36697.24770642204
0.001885,36199.09502262446
0.001995,35874.43946188339
0.002106,35398.23008849556
0.002218,35087.719298245625
0.002332,34782.60869565215
0.002446,34482.75862068965
0.002562,34334.7639484979
0.002678,33898.30508474575
0.0027949999999999997,33613.445378151206
0.002914,33333.33333333331
0.003033,32921.81069958846
0.003154,32653.061224489797
0.0032760000000000003,32388.66396761136
0.003399,32000.000000000025
0.003523,31620.553359683825
0.003649,31372.549019607843
0.003776,31007.751937984445
0.003904,30769.23076923074
0.004034,30534.35114503816
0.004164,30188.679245282965
0.004296,29962.546816479316
0.004429000000000001,29739.776951672848
0.004563000000000001,29520.29520295208
0.004698000000000001,29411.76470588239
0.004834000000000001,29304.029304029325
0.0049700000000000005,29090.909090909085
0.005107,28880.866425992746
0.0052450000000000005,28880.866425992746
0.005384000000000001,28776.97841726614
0.005522000000000001,28571.428571428496
0.005662000000000001,28571.428571428496
0.005802000000000002,28469.750889679715
0.005942000000000002,28268.551236749176
0.006083000000000002,28169.01408450709
0.006225000000000001,28169.01408450709
0.006367000000000001,28070.175438596525
0.006509000000000001,27972.02797202799
0.006652000000000001,27874.56445993032
0.006795000000000001,27777.77777777777
0.006939000000000001,27681.66089965396
0.007083000000000001,27681.66089965396
0.007228000000000001,27586.206896551692
0.007372000000000001,27491.40893470786
0.007518000000000001,27397.260273972628
0.007663000000000001,27303.754266211618
0.007810000000000001,27210.884353741418
0.007956000000000001,27118.6440677966
0.008104000000000002,27118.6440677966
0.008251000000000001,27027.027027026925
0.008399000000000002,27027.027027026925
0.008547000000000003,26936.0269360269
0.008695000000000003,26845.637583892647
0.008844000000000003,26845.637583892647
0.008993000000000003,26845.637583892647
0.009142000000000003,26755.852842809305
0.009291000000000002,26666.66666666652
0.009441000000000003,26578.073089700916
0.009591000000000004,26578.073089700916
0.009742000000000004,26578.073089700916
0.009892000000000005,26490.066225165545
0.010043000000000005,26490.066225165545
0.010194000000000005,26402.64026402645
0.010345000000000005,26315.789473684323
0.010497000000000005,26229.508196721337
0.010649000000000004,25889.96763754043
0.010802000000000004,25974.025974026037
0.010958000000000004,25806.451612903267
0.011110000000000004,25641.02564102566
0.011268000000000004,24390.24390243901
0.011422000000000003,24464.83180428128
0.011596000000000004,26058.631921824104
0.011749000000000004,26845.637583892647
0.011903000000000004,27586.206896551692
0.012047000000000004,19559.902200489014
0.012193000000000004,15904.572564612326
0.012456000000000004,20460.358056265948
0.012696000000000004,26845.637583892647
0.012847000000000004,21563.34231805931
0.012994000000000004,17817.371937639207
0.013218000000000004,19277.108433735
0.013443000000000004,23952.09580838329
0.013633000000000003,26936.0269360269
0.013777000000000003,23460.41055718468
0.013930000000000003,21563.34231805921
0.014118000000000004,21857.92349726776
0.014301000000000005,19950.12468827937
0.014484000000000004,19900.497512437832
0.014702000000000003,19656.019656019685
0.014886000000000003,19138.755980861246
0.015109000000000003,23952.095808383165
0.015304000000000003,19851.11662531023
0.015443000000000004,19704.433497537026
0.015707000000000002,19801.980198019894
0.015849000000000002,16393.442622950857
0.016111,21276.595744680777
0.016337,27118.6440677966
0.016487,24464.83180428128
0.016632,19464.720194647125
0.016814000000000003,19512.19512195119
0.017043000000000003,19093.078758949916
0.017224000000000003,18912.529550827432
0.017462000000000002,17429.193899782094
0.017647000000000003,14814.814814814847
0.017921000000000003,16129.032258064519
0.018187000000000002,18823.529411764626
0.018417000000000003,21680.216802167946
0.018612000000000004,22160.664819944584
0.018786000000000004,16597.51037344399
0.018973000000000004,18181.818181818206
0.019268000000000004,24169.18429003036
0.019413000000000003,21798.365122615847
0.019599000000000002,21978.021978021992
0.019780000000000002,24242.42424242421
0.019963,12012.012012012014
0.020110000000000003,10767.160161507443
0.020629,17621.145374449356
0.020853,14285.714285714248
0.021083,14414.414414414416
0.021413,17777.777777777817
0.021638,19801.980198019894
0.021863,21857.923497267864
0.022042,22346.368715083758
0.022229,16293.279022403198
0.0224,10484.92791612058
0.02272,12030.075187969944
0.023163,19900.497512437832
0.023385,21739.130434782594
0.023565,16985.138004246313
0.023753,15841.584158415888
0.024036,21917.808219178038
0.024258,21505.376344085977
0.024401,16632.016632016675
0.02463,19900.497512437832
0.024881999999999998,15655.577299412884
0.025032,11644.832605531294
0.025393,12759.170653907515
0.025719,15209.12547528521
0.026019999999999998,19323.671497584488
0.026244999999999997,21621.62162162149
0.026434,21680.216802167946
0.026615,21563.34231805931
0.026803,19323.671497584648
0.026986,19323.671497584648
0.027216999999999998,21739.130434782594
0.027399999999999997,21390.374331550644
0.027585,20997.375328083832
0.027774,13136.288998357923
0.027966,12195.121951219506
0.028383000000000002,17278.61771058322
0.028622,17977.528089887743
0.028846,14440.433212996417
0.029067,10666.666666666657
0.0294,12288.786482334826
0.029817,17057.56929637524
0.030051,19047.61904761904
0.030286,22222.222222222055
0.030471,17167.381974248885
0.030646000000000003,18306.63615560641
0.030937000000000003,22922.636103151952
0.031083000000000003,11627.906976744225
0.031286,11976.047904191582
0.031771,17467.24890829694
0.031954,14787.430683918674
0.032229,16393.44262295074
0.032495,12499.999999999967
0.032717,11004.126547455318
0.033135000000000005,16260.162601626036
0.033444,16260.162601626036
0.033627000000000004,11661.807580174942
0.033936,10554.08970976251
0.034313,11904.761904761923
0.034694,13559.3220338983
0.034985,16771.48846960174
0.035284,22346.368715083972
0.035462,14159.292035398155
0.035642,13029.31596091198
0.036027,12638.230647709288
0.036256000000000004,11065.006915629301
0.036660000000000005,13840.830449826939
0.036979000000000005,17937.219730941626
0.03723800000000001,24024.024024024027
0.03742500000000001,18058.690744921038
0.03757100000000001,12048.192771084376
0.037868000000000006,12698.412698412727
0.038235000000000005,17777.777777777817
0.038498000000000004,19093.078758949756
0.038685000000000004,17582.417582417427
0.03891700000000001,17777.777777777817
0.03914000000000001,11251.758087201182
0.039367000000000006,11235.955056179817
0.039851000000000004,19138.755980861166
0.040079000000000004,21563.34231805911
0.040269000000000006,22038.567493112812
0.04045000000000001,21621.62162162149
0.04063200000000001,21798.365122615847
0.04082000000000001,22160.664819944584
0.04099900000000001,19656.019656019434
0.04118100000000001,9280.742459396733
0.04140600000000001,8394.543546694687
0.04204300000000001,10282.776349614476
0.04235900000000001,12307.692307692349
0.042821000000000005,21447.72117962476
0.043009000000000006,12519.56181533645
0.043194,8163.265306122435
0.044174000000000005,8205.128205128174
0.04468300000000001,12269.938650306753
0.04514900000000001,16949.152542372874
0.04533500000000001,17021.276595744745
0.04562100000000001,15414.258188824704
0.045805000000000005,13468.013468013372
0.04614000000000001,11510.791366906455
0.04639900000000001,10666.666666666657
0.04683500000000001,12345.679012345627
0.04714900000000001,13355.592654423988
0.04748300000000001,16326.530612244755
0.04774800000000001,19559.902200489014
0.047973000000000016,17621.14537444949
0.04815700000000001,11126.564673157203
0.04842700000000001,9400.705052878993
0.04887600000000001,12820.51282051283
0.04927800000000001,16393.44262295074
0.04950000000000001,16161.616161616084
0.05113300000000001,13050.570962479704
0.05148400000000001,11764.70588235294
0.05174600000000001,10666.666666666657
0.05216400000000001,13223.14049586774
0.05249600000000001,10282.776349614383
0.05327400000000001,9324.00932400935
0.05389700000000001,10810.810810810846
0.054132000000000007,9153.318077803206
0.054637000000000005,13422.818791946323
0.055006000000000006,13605.442176870789
0.055233000000000004,14760.147601475992
0.055594000000000005,12441.679626749656
0.055775000000000005,10362.694300518204
0.056237,10973.936899862818
0.056547,8800.8800880088
0.056966,9791.921664626703
0.057456,10738.255033557009
0.057783,10709.504685408234
0.058201,14134.275618374459
0.058530000000000006,15594.541910331398
0.05876700000000001,17391.30434782627
0.059043000000000005,16393.442622950974
0.059227,14981.273408239707
0.059531,15841.584158415888
0.059761,12944.983818770215
0.060036,15238.095238095104
0.060379,14159.292035398155
0.060561000000000004,10723.86058981228
0.060944000000000005,12618.296529968402
0.06130700000000001,11764.70588235294
0.06157800000000001,10101.010101010088
0.06198700000000001,14035.087719298048
0.06237000000000001,17467.24890829694
0.06255700000000002,16359.91820040935
0.06282800000000001,17937.219730941626
0.063046,19184.652278177426
0.06327400000000001,17021.276595744745
0.064778,15065.913370998012
0.065081,17543.859649122347
0.065309,19512.19512195086
0.06553700000000001,13698.630136986274
0.06571900000000001,11204.481792716988
0.06612100000000001,16260.162601625807
0.06643300000000002,19559.902200489345
0.06661300000000002,11111.111111111135
0.06796200000000002,8456.659619450296
0.06872200000000002,15473.887814313239
0.07379100000000002,8097.165991902925
0.07454800000000002,19512.195121951518
0.07477900000000001,15999.999999999985
0.07677100000000002,13223.14049586789
0.07719700000000002,21857.92349726745
0.07737600000000001,10126.582278480848
0.08135700000000004,10309.278350515478
0.08473700000000003,21739.130434782182
0.08492200000000004,13333.33333333326
0.08613800000000005,10443.864229764975
0.08672500000000005,22346.368715083972
0.08690400000000005,22099.44751381208
0.08708300000000005,21857.92349726745
0.08726600000000005,13289.036544850382
0.08744900000000005,9937.888198757762
0.08786800000000006,13961.605584642135
0.08825400000000005,19277.108433734356
0.08844100000000006,13490.725126475316
0.09004300000000007,15065.913370998012
0.09039500000000007,21978.021978021785
0.09057400000000007,21857.92349726745
0.09185600000000008,11347.517730496498
0.09730400000000007,19277.108433735
0.09748500000000007,13986.013986013912
0.09771900000000007,14234.875444839681
0.09805700000000007,19559.902200488683
0.09828100000000008,15936.254980079604
0.10018800000000008,19230.769230769245
0.10037000000000008,11764.70588235294
0.10060400000000008,12903.225806451705
0.10105000000000008,19900.497512437832
0.10122400000000008,12558.869701726597
0.1029910000000001,8705.114254624563
0.1034400000000001,11560.693641618527
0.1039100000000001,12499.999999999967
0.1041320000000001,8171.603677221591
0.1045500000000001,10781.671159029554
0.10511100000000011,14625.228519195456
0.10529200000000011,10928.961748633725
0.10795300000000012,16096.57947686125
0.10813400000000012,16359.918200408887
0.10845000000000012,22471.910112358975
0.10862300000000012,22038.567493112812
0.10880600000000012,21917.80821917783
0.10898600000000012,15873.015873015733
0.11115300000000013,13651.877133105729
0.11137600000000013,8350.730688935277
0.11173900000000013,10349.288486416614
0.11233400000000013,22535.211267606002
0.11251200000000013,22038.567493112812
0.11268900000000012,15594.541910331398
0.11287500000000013,9937.888198757762
0.11320200000000012,9039.54802259876
0.11541000000000014,19607.843137254633
0.11812600000000015,21857.92349726745
0.11830900000000015,19512.19512195086
0.11849200000000015,19900.497512437832
0.11871900000000016,22471.910112359852
0.11889400000000015,21798.365122615436
0.11907500000000015,21563.342318058705
0.11926100000000016,10610.079575596752
0.11944600000000016,10062.893081760954
0.12103500000000017,12820.51282051283
0.12126800000000017,14035.087719298219
0.12165900000000017,22038.567493112812
0.12183800000000017,22038.567493112812
0.12202200000000017,19607.843137255302
0.12220100000000017,14842.300556586331
0.12243000000000016,16293.279022403081
0.12274000000000017,21978.021978021785
0.12292100000000017,15968.063872255443
0.12608900000000017,12944.983818770072
0.12627800000000017,12232.41590214038
0.12670700000000018,12718.60095389526
0.12693200000000018,10973.936899863133
0.12733600000000017,16032.06412825653
0.13030800000000017,22160.664819944584
0.13048900000000016,22038.567493112812
0.13066900000000017,22160.664819944584
0.13085200000000016,22346.36871508224
0.13103000000000017,21857.92349726745
0.1312100000000002,21739.130434783823
0.1349320000000002,8998.875140607415
0.13542500000000018,13840.830449827105
0.1358210000000002,14571.948998178666
0.1373780000000002,8105.369807497566
0.19622100000000015,50955.414012741945
0.19629900000000014,50632.91139240779
0.19637800000000014,50314.46540880741
0.19645700000000013,49382.71604938409
0.19653700000000013,48484.84848484893
0.19661900000000013,47619.047619047196
0.19670200000000013,46511.62790697526
0.19678700000000013,45714.2857142835
0.19687400000000013,45197.740112991676
0.19696200000000014,44444.44444444111
0.19705100000000014,43715.84699453158
0.19714200000000015,42553.19148935684
0.19723400000000016,41450.77720206685
0.19733000000000017,40816.326530611885
0.19742700000000019,40404.04040404531
0.19752600000000017,40000.0000000044
0.19762500000000016,39215.68627451327
0.19772600000000015,38834.9514563137
0.19782900000000014,38277.51196172487
0.19793200000000014,37735.849056605555
0.19803800000000013,37383.17757009486
0.19814400000000013,36866.35944700546
0.19825200000000012,36529.68036529731
0.19836100000000012,36036.03603603604
0.19847100000000012,35714.2857142854
0.19858300000000012,35555.55555555508
0.19869500000000012,35242.2907488979
0.19880800000000012,34934.49781659282
0.19892200000000013,34482.758620688175
0.19903700000000013,34188.03418803244
0.19915400000000014,33898.305084743755
0.19927100000000014,33333.33333333084
0.19939000000000015,33057.85123966669
0.19951100000000016,32786.88524589869
0.19963200000000017,32388.66396760806
0.19975500000000018,32128.514056225
0.1998790000000002,31872.509960162733
0.20000400000000018,31620.55335968686
0.20013000000000017,31250.00000000263
0.20025700000000016,31007.751937986843
0.20038600000000015,30769.230769232843
0.20051500000000014,30418.250950572023
0.20064600000000013,30303.030303031857
0.20077800000000012,30075.187969926115
0.20091000000000012,29739.776951673804
0.2010440000000001,29520.29520295274
0.2011790000000001,29304.02930402979
0.2013150000000001,29197.08029197118
0.2014520000000001,29090.909090909357
0.2015890000000001,28880.866425992834
0.2017270000000001,28673.835125447877
0.2018660000000001,28571.428571428318
0.2020060000000001,28469.750889679362
0.2021460000000001,28368.794326240684
0.2022870000000001,28268.55123674857
0.2024280000000001,28169.0140845064
0.2025700000000001,28070.175438595754
0.20271200000000011,27972.027972027143
0.20285500000000012,27874.564459929396
0.20299800000000012,27681.66089965288
0.20314200000000013,27586.20689655054
0.20328700000000013,27586.20689655054
0.20343200000000014,27491.408934706633
0.20357700000000015,27397.260273971246
0.20372300000000015,27397.260273971246
0.20386900000000016,27210.884353739973
0.20401500000000017,27118.644067795005
0.20416300000000018,27118.644067795005
0.20431000000000019,27027.027027025342
0.2044580000000002,26936.02693602517
0.2046060000000002,26845.637583890773
0.20475500000000021,26755.852842807442
0.20490400000000022,26666.66666666467
0.20505400000000024,26666.66666666467
0.20520400000000025,26666.66666666467
0.20535400000000026,26578.073089698923
0.20550400000000027,26402.640264024183
0.20565500000000028,26315.789473681918
0.2058070000000003,26402.640264024183
0.2059590000000003,26315.789473684323
0.20611000000000032,26229.508196721337
0.2062630000000003,26315.789473681918
0.20641500000000032,26315.789473681918
0.20656700000000033,26315.789473681918
0.20671900000000035,26229.508196721337
0.20687100000000036,25477.707006370973
0.20702400000000035,25316.455696203895
0.20718500000000034,25316.455696203895
0.20734000000000033,25078.369905957217
0.20750100000000032,25723.47266881211
0.20765900000000032,27303.75426621275
0.2078120000000003,27027.027027027874
0.2079520000000003,26315.789473684323
0.2081080000000003,27027.027027025342
0.2082560000000003,26936.02693602517
0.2084040000000003,27303.754266210162
0.20855300000000032,20512.820512820435
0.20869700000000033,17130.620985010883
0.20894300000000032,21680.21680216754
0.20916400000000032,24316.1094224927
0.20931200000000033,13223.14049586789
0.20991700000000033,9142.85714285699
0.21064600000000033,27681.66089965288
0.21079200000000034,17857.1428571427
0.21093500000000034,16260.162601626265
0.22068700000000036,11904.761904761799
0.22082700000000036,9111.617312072709
0.22135900000000036,9280.742459396733
0.22170500000000037,8097.165991902925
0.38384900000000033,50000.00000000204
0.3839280000000003,48192.7710843375
0.3840090000000003,46783.62573100052
0.3840940000000003,45977.011494265564
0.3841800000000003,44692.73743017141
0.3842680000000003,43715.84699453821
0.3843590000000003,42553.191489369405
0.38445100000000026,40816.32653061766
0.38454700000000025,40404.04040404531
0.38464700000000024,40816.32653061766
0.3847450000000002,40404.04040404531
0.3848430000000002,39800.99502487429
0.3849430000000002,39215.6862745026
0.3850440000000002,38834.951456303235
0.38514700000000024,38461.53846153079
0.38525000000000026,37914.691943124955
0.3853550000000003,37558.685446006086
0.3854610000000003,37037.03703702855
0.3855680000000003,36697.24770641335
0.3856770000000003,36363.63636362752
0.38578600000000035,35555.5555555507
0.3858970000000004,34042.553191491505
0.3860110000000004,33898.30508475173
0.38613200000000036,34482.758620696426
0.38624700000000034,34042.553191491505
0.3863640000000003,33755.2742616052
0.3864820000000003,33472.80334728184
0.3866010000000003,33195.020746889175
0.3867210000000003,32786.885245906145
0.3868420000000003,32388.6639676117
0.3869650000000003,31999.99999999642
0.3870890000000003,31620.553359683392
0.3872150000000003,31372.549019607202
0.3873420000000003,31128.404669259824
0.3874700000000003,30769.230769232843
0.3875990000000003,30418.250950568814
0.3877300000000003,30188.679245281284
0.3878620000000003,29850.74626865778
0.3879950000000003,29629.629629630457
0.3881300000000003,29304.02930402681
0.3882650000000003,28985.507246371144
0.38840300000000033,28880.86642598994
0.38854100000000036,28673.83512545073
0.38868000000000036,28469.750889682175
0.38882000000000033,28268.551236751344
0.38896100000000033,28070.17543859849
0.3891030000000003,27972.027972027143
0.3892460000000003,27874.56445993209
0.3893890000000003,27777.77777778212
0.3895330000000003,27681.66089965554
0.3896770000000003,27586.20689655054
0.3898220000000003,27491.408934709252
0.3899670000000003,27397.260273976455
0.39011300000000027,27303.75426621275
0.39025900000000024,27210.884353739973
0.39040600000000025,27210.884353739973
0.39055300000000026,27210.884353739973
0.39070000000000027,27118.644067797555
0.3908470000000003,26936.026936027687
0.39099500000000026,26936.026936027687
0.39114400000000027,26936.026936027687
0.39129200000000025,26845.637583890773
0.39144100000000026,26845.637583890773
