Time,Frequency
9.499999999999999e-05,40816.326530612234
0.000192,39999.99999999999
0.000291,39024.39024390244
0.00039200000000000004,38095.238095238106
0.000496,37383.17757009346
0.000602,36697.24770642202
0.00071,36036.03603603604
0.00082,35555.55555555556
0.000932,35087.71929824561
0.001045,34632.03463203462
0.00116,34334.763948497864
0.001276,33898.30508474578
0.001393,33472.80334728036
0.0015119999999999999,33057.85123966945
0.0016319999999999998,32653.061224489797
0.0017539999999999997,32258.06451612901
0.0018769999999999998,31999.99999999997
0.002002,31746.03174603174
0.002127,31372.549019607843
0.002254,31128.404669260664
0.002382,30769.23076923074
0.002511,30534.35114503816
0.0026420000000000003,30303.030303030315
0.0027730000000000003,30188.679245283012
0.002906,30188.679245283012
0.0030380000000000003,30075.187969924842
0.003171,29962.546816479415
0.003304,29739.776951672848
0.003438,29629.6296296296
0.0035730000000000002,29629.6296296296
0.0037080000000000004,29411.764705882295
0.0038430000000000005,29197.080291970764
0.003980000000000001,29197.08029197081
0.004117000000000001,29090.909090909085
0.004254000000000001,28985.50724637679
0.004392000000000001,28880.866425992746
0.004530000000000001,28776.97841726614
0.004669000000000001,28673.835125447968
0.0048080000000000015,28469.750889679715
0.004948000000000002,28469.750889679715
0.0050890000000000015,28469.750889679715
0.005229000000000002,28268.551236749176
0.0053700000000000015,28169.01408450709
0.005512000000000001,28169.01408450709
0.005654000000000001,28070.175438596525
0.005796000000000001,27972.02797202799
0.005939000000000001,27972.02797202799
0.006082000000000001,27874.56445993032
0.0062250000000000005,27777.77777777777
0.0063690000000000005,27777.77777777777
0.0065130000000000006,27681.66089965396
0.006657000000000001,27681.66089965396
0.006802000000000001,27586.206896551692
0.006946000000000001,27491.40893470786
0.007092000000000001,27491.40893470786
0.007237000000000001,27397.260273972548
0.0073830000000000015,27397.260273972548
0.007529000000000002,27303.754266211537
0.007675000000000002,27303.754266211537
0.007822000000000003,27210.884353741418
0.007968000000000003,27118.6440677966
0.008116000000000003,27118.6440677966
0.008263000000000003,27118.6440677966
0.008411000000000004,27118.6440677966
0.008558000000000003,26936.0269360269
0.008706000000000004,26936.0269360269
0.008855000000000003,26936.0269360269
0.009003000000000004,26755.852842809305
0.009152000000000004,26755.852842809305
0.009302000000000005,26845.637583892647
0.009451000000000005,26755.852842809305
0.009600000000000004,26666.66666666652
0.009750000000000005,26666.66666666652
0.009900000000000006,26666.66666666652
0.010050000000000007,26578.073089700916
0.010200000000000008,26490.066225165545
0.010351000000000008,26490.066225165545
0.010502000000000008,26490.066225165545
0.010653000000000008,26402.64026402645
0.010804000000000008,26229.508196721337
0.010956000000000007,26143.79084967314
0.011109000000000008,26058.631921824104
0.011262000000000008,25889.96763754043
0.011416000000000008,26058.631921824104
0.011571000000000008,25974.025974026037
0.011723000000000008,25641.02564102566
0.011879000000000008,15594.541910331398
0.01985200000000001,26315.789473684323
0.02000100000000001,9638.5542168675
0.020156000000000007,8121.827411167515
0.020831000000000006,8394.543546694627
0.021141000000000007,8483.563096500504
0.021784000000000008,17937.219730941626
0.02208400000000001,24024.024024024027
0.02223000000000001,14897.57914338922
0.02241700000000001,10152.284263959384
0.02276700000000001,8519.701810436614
0.023706000000000012,8105.369807497453
0.030981000000000015,8088.978766430708
0.034567000000000014,11477.761836441841
0.034921000000000015,9302.325581395353
0.03526400000000002,12232.415902140769
0.035781000000000014,10840.108401084075
0.03872500000000001,14814.814814814657
0.03911700000000001,17241.37931034486
0.039265000000000015,17130.620985010883
0.03958100000000001,16326.530612244986
0.04466300000000001,9456.264775413716
0.07234100000000002,18691.588785046824
0.08358500000000003,25477.70700636872
0.25594100000000003,42553.19148935684
0.25603400000000004,41666.666666661135
0.25612900000000005,40609.137055837
0.25622600000000006,39603.96039604353
0.25632600000000005,38647.342995166706
0.25642800000000004,37914.691943124955
0.25653300000000007,37383.17757009486
0.25663900000000006,36866.359447000745
0.25674700000000006,36529.680365292676
0.2568560000000001,36036.03603603604
0.2569660000000001,35555.55555555947
0.2570780000000001,35242.29074890222
0.25719100000000006,34782.60869565097
0.25730500000000006,34334.763948500324
0.25742100000000007,33898.30508475173
0.25753800000000004,33613.445378156845
0.257657,33333.333333338545
0.257776,32786.885245906145
0.257897,32520.3252032562
0.25801999999999997,32258.064516132872
0.25814299999999996,31872.50996015921
0.25826799999999994,31620.553359683392
0.25839399999999996,31372.549019607202
0.25852099999999995,31128.404669259824
0.25864899999999996,31007.751937986843
0.25877799999999995,30769.230769232843
0.25890699999999994,30651.340996167266
0.25903799999999993,30534.35114503351
0.25916799999999995,30303.030303025484
0.2593,30188.679245281284
0.259432,30075.187969926115
0.259565,29962.54681647747
0.259698,29850.746268651594
0.259832,29739.776951670738
0.25996600000000003,29629.629629630457
0.260101,29520.295202949717
0.260236,29411.764705876947
0.26037200000000005,29304.02930402681
0.2605080000000001,29197.08029197118
0.26064500000000007,29090.90909090642
0.26078200000000007,28985.507246371144
0.2609200000000001,28985.507246371144
0.2610580000000001,28985.507246371144
0.26119600000000015,28880.86642598994
0.2613340000000002,28673.83512545073
0.2614730000000002,28673.83512545073
0.26161300000000015,28673.83512545073
0.26175200000000015,28469.750889682175
0.2618920000000001,28469.750889682175
0.2620330000000001,28469.750889682175
0.2621730000000001,28368.794326240684
0.2623140000000001,28268.551236751344
0.2624550000000001,28268.551236751344
0.2625970000000001,28169.0140845064
0.2627380000000001,28070.17543859849
0.2628810000000001,28169.014084511906
0.26302300000000006,28070.17543859849
0.26316500000000004,27972.027972027143
0.26330800000000004,27972.027972027143
0.26345100000000005,27874.56445993209
0.26359400000000005,27874.56445993209
0.26373800000000003,27874.56445993209
0.26388100000000003,27777.77777778212
0.264025,27681.66089965554
0.264169,27681.66089965554
0.264314,27681.66089965554
0.26445799999999997,27586.20689655054
0.264603,27586.20689655054
0.264748,27491.408934709252
0.264893,27491.408934709252
0.26503899999999997,27491.408934709252
0.265184,27397.260273976455
0.26532999999999995,27397.260273976455
0.26547599999999993,27303.75426621275
0.2656219999999999,27210.884353739973
0.2657689999999999,27210.884353739973
0.26591599999999993,27210.884353739973
0.26606299999999994,27210.884353739973
0.26620999999999995,27118.644067797555
0.26635699999999995,27027.02702703041
0.26650499999999994,27027.02702703041
0.2666529999999999,27027.02702703041
0.2668009999999999,26936.026936027687
0.2669489999999999,26845.637583890773
0.2670979999999999,26845.637583890773
0.2672469999999999,26755.852842809927
0.2673959999999999,26578.073089701375
0.2675459999999999,26490.066225163417
0.2676969999999999,26315.789473681918
0.2678479999999999,26143.79084967077
0.26800099999999993,26229.508196721337
0.26815399999999995,26402.640264026602
0.26830599999999993,25723.472668809816
0.26845699999999995,23188.40579710251
0.26861699999999994,21164.021164021753
0.26880199999999993,23952.095808383165
0.26899499999999993,28571.428571428318
0.26913599999999993,28880.86642598994
0.26927499999999993,29304.02930402681
0.26941299999999996,30651.340996167266
0.26954799999999995,24169.184290028334
0.26967399999999997,23323.61516034729
0.269879,28880.86642598994
0.270017,28776.97841726614
0.270156,22284.122562674205
0.270295,22346.36871508224
0.270515,29197.080291965263
0.27065300000000003,20253.16455696027
0.27078900000000006,19047.61904761762
0.27104800000000007,26402.640264026602
0.2712090000000001,28985.507246376972
0.27135100000000006,29090.90909090642
0.2714850000000001,28571.428571428318
0.2716260000000001,22792.02279202343
0.2717650000000001,18433.17972350273
0.2719770000000001,21917.80821917783
0.2721990000000001,25477.707006370973
0.2723420000000001,25236.593059940395
0.27251300000000006,27681.66089965554
0.27265900000000004,27118.644067797555
0.27280200000000004,27491.408934709252
0.27295400000000003,28673.83512545073
0.27309300000000003,27874.56445993209
0.273233,27777.77777777677
0.27338,21447.721179623964
0.273521,21220.15915119272
0.273753,27303.75426621275
0.27389800000000003,26936.026936027687
0.274046,27586.20689655054
0.274195,28268.551236751344
0.274336,26666.666666669604
0.274478,27118.644067797555
0.274636,28673.83512545073
0.274773,27681.66089965554
0.27491499999999996,27586.20689655054
0.275062,28268.551236751344
0.275205,27972.027972032574
0.27534499999999995,23188.40579710251
0.27549099999999993,23323.615160351063
0.27568999999999994,27681.66089965554
0.2758339999999999,27303.75426621275
0.2759789999999999,23188.40579710251
0.2761269999999999,23738.872403562505
0.2763239999999999,27397.260273976455
0.2764639999999999,27586.20689655054
0.27661599999999986,28571.428571428318
0.2767539999999999,18348.62385321135
0.27689599999999986,18561.48491879287
0.2771899999999999,19900.497512437145
0.2773269999999999,19999.99999999943
0.2775919999999999,25078.369905955034
0.2777269999999999,23668.63905325409
0.2779109999999999,27491.408934709252
0.2780649999999999,29304.02930402681
0.2782019999999999,28985.507246376972
0.2783379999999999,22988.505747129115
0.2784779999999999,17278.617710583483
0.2786859999999999,20565.5526992273
0.2789409999999999,28469.75088967655
0.2790749999999999,27874.56445993209
0.2792219999999999,27681.66089965554
0.2793619999999999,27210.884353739973
0.2795109999999999,27681.66089965554
0.2796559999999999,27972.027972032574
0.2797999999999999,19900.49751243989
0.27994199999999986,17167.381974250162
0.28020199999999984,18561.48491879526
0.2804079999999998,22988.505747129115
0.2806329999999998,25806.451612905144
0.2807559999999998,20997.375328082875
0.2809429999999998,23738.8724035586
0.2811369999999998,17094.01709401622
0.2812799999999998,16913.319238900593
0.2816049999999998,21563.342318061932
0.2817529999999998,22535.211267606002
0.2819759999999998,30075.18796991984
0.2821079999999998,29739.776951670738
0.2822419999999998,29304.02930402681
0.2823769999999998,16877.63713080062
0.28251499999999985,15533.980582524644
0.28285099999999985,25806.451612905144
0.28302999999999984,25806.451612905144
0.28316099999999983,16326.530612245217
0.2833399999999998,14311.270125222802
0.2836509999999998,13114.754098360669
0.28389899999999985,14159.292035398677
0.2842609999999998,12326.656394452802
0.28446399999999983,13651.877133106374
0.28490999999999983,23809.523809527534
0.2850499999999998,23668.63905325798
0.2852459999999998,28673.83512545073
0.28538799999999975,27681.66089965554
0.28552499999999975,21857.923497269105
0.28567699999999974,20202.020202019823
0.28589099999999973,24691.358024692046
0.28607299999999974,28880.86642599573
0.2862149999999997,29629.629629630457
0.2863499999999997,29197.08029197118
0.2864849999999997,25078.369905955034
0.2866239999999997,25000.00000000102
0.2868039999999997,29739.776951676875
0.2869439999999997,30075.187969926115
0.2870729999999997,29304.02930402681
0.2872099999999997,27972.027972027143
0.2873459999999997,17094.017094018247
0.2874959999999997,16460.9053497947
0.2878139999999997,26058.63192182396
0.2879819999999997,28776.97841726614
0.2881209999999997,22857.14285714175
0.2882599999999997,22727.272727271502
0.2884709999999997,28469.750889682175
0.2886119999999997,29629.629629630457
0.2887519999999997,26490.066225163417
0.2888819999999997,25396.825396824614
0.2890539999999997,19047.61904761762
0.2891969999999997,18912.529550827123
0.28947399999999973,17057.569296375368
0.2896199999999997,12820.512820512544
0.28994299999999973,16736.40167364092
0.2902439999999997,25000.00000000102
0.2904209999999997,11922.50372578282
0.2905639999999997,8565.310492505441
0.2910919999999997,14571.94899817793
0.2914979999999997,22346.36871508224
0.2916409999999997,22662.889518410535
0.2918559999999997,10869.565217391091
0.29199399999999975,8501.59404888444
0.29259199999999974,13888.888888889722
0.2929349999999997,21390.374331551633
0.2931679999999997,13201.320132013301
0.2933089999999997,9925.558312655414
0.2937739999999997,10139.416983523652
0.2941149999999997,9626.955475330624
0.2945629999999997,8130.081300812674
0.2949459999999997,8771.929824561174
0.2955469999999997,14336.917562723938
0.29585799999999973,20512.820512820435
0.29610499999999973,28169.0140845064
0.29624799999999973,14869.888475836902
0.29638899999999974,13114.754098360669
0.2967859999999997,17467.24890829641
0.29699899999999974,13445.378151260229
0.29724399999999973,11363.636363635751
0.29794799999999977,8376.963350785483
0.29864999999999975,11267.605633803001
0.3069299999999998,9467.455621301948
0.3076309999999998,14732.965009209183
0.3077749999999998,11019.283746556406
0.3081739999999998,8146.639511201311
0.3085009999999998,8105.369807497339
0.4974829999999998,41450.777202072815
0.49757899999999977,40609.137055837
0.4976759999999998,39800.99502487429
0.4977759999999998,39024.390243900394
0.4978769999999998,38095.238095240275
0.4979809999999998,37558.685446006086
0.4980869999999998,37037.03703702855
0.4981939999999998,36697.24770641335
0.49830299999999983,36199.09502262006
0.49841199999999986,35714.2857142854
0.49852399999999986,35398.23008849495
0.49863599999999986,34934.49781659705
0.49874999999999986,34482.758620696426
0.49886499999999984,34042.553191491505
0.4989819999999998,33613.445378149
0.4990999999999998,33333.33333333084
0.49921999999999983,32921.8106995894
0.49933999999999984,32520.3252032562
0.4994629999999998,32258.064516132872
0.4995859999999998,32000.000000003525
0.4997109999999998,31746.03174603496
0.4998359999999998,31496.06299212202
0.49996299999999977,31249.999999989075
0.5000899999999998,31007.751937973502
0.5002189999999999,30769.230769226273
0.5003479999999999,30534.35114503998
0.5004789999999999,30534.35114503998
0.5006099999999999,30303.030303025484
0.5007409999999999,30075.187969913564
0.5008739999999999,30075.187969913564
0.501007,29962.54681647747
0.50114,29739.776951676875
0.501274,29629.629629630457
0.501409,29629.629629630457
0.501544,29520.295202949717
0.501679,29304.029304020853
0.501815,29197.080291959348
0.5019520000000001,29197.080291959348
0.5020890000000001,29090.90909090642
0.5022260000000002,28985.507246382804
0.5023640000000001,28880.86642599573
0.5025020000000001,28776.97841726614
0.5026410000000001,28776.97841726614
0.5027800000000001,28776.97841726614
0.5029190000000001,28673.835125445024
0.5030580000000001,28571.428571422653
0.5031980000000001,28571.428571422653
0.5033380000000002,28469.750889682175
0.5034780000000002,28469.750889682175
0.5036190000000001,28368.794326240684
0.5037590000000002,28268.551236756888
0.5039010000000002,28268.551236756888
0.5040420000000001,28169.014084511906
0.5041840000000001,28169.014084511906
0.504326,28070.17543859849
0.504468,28070.17543859849
0.504611,28070.17543859849
0.504753,27874.5644599267
0.504896,27874.5644599267
0.50504,27874.5644599267
0.505183,27777.777777771415
0.5053270000000001,27777.777777771415
0.5054710000000001,27681.66089965554
0.5056150000000001,27586.2068965611
0.5057600000000001,27586.2068965611
0.505905,27586.2068965611
0.50605,27586.2068965611
0.506195,27586.2068965611
0.5063399999999999,27491.408934714498
0.5064849999999999,27397.260273976455
0.5066309999999998,27397.260273976455
0.5067769999999998,27397.260273976455
0.5069229999999998,27303.75426621275
0.5070689999999998,27303.75426621275
0.5072159999999998,27303.75426621275
0.5073619999999998,27210.884353739973
0.5075089999999998,27118.64406779245
0.5076559999999998,27118.64406779245
0.5078039999999998,27118.64406779245
0.5079509999999998,27027.02702702027
0.5080989999999999,27027.02702702027
0.5082469999999999,27027.02702702027
0.5083949999999999,26936.026936027687
0.508543,26845.637583900774
0.5086919999999999,26845.637583900774
0.5088409999999999,26845.637583900774
0.5089899999999998,26755.852842814893
0.5091389999999998,26666.666666669604
0.5092889999999998,26666.666666669604
0.5094389999999998,26490.066225163417
0.5095889999999997,26229.508196721337
0.5097409999999998,26058.63192182867
0.5098939999999997,25806.451612900524
0.5100479999999997,25806.451612900524
0.5102039999999998,26058.63192182867
0.5103579999999998,26058.63192182867
0.5105109999999997,25974.025974028085
0.5106649999999997,25477.70700636647
0.5108189999999997,16736.401673637036
0.5109789999999997,12882.447665054417
0.5112969999999998,14388.48920863307
0.5115999999999998,13536.379018614876
0.5118529999999998,16736.40167364092
0.5121909999999997,18223.23462414254
0.5123309999999998,8998.875140607133
0.5126299999999998,11004.126547454794
0.5132199999999998,29629.629629618274
0.5133569999999998,29520.295202949717
0.5134899999999999,21390.374331551633
0.5136279999999999,12326.656394452802
0.5138639999999999,11363.636363635751
0.5142769999999999,14571.94899817793
0.5145679999999999,19323.671497583353
0.5148259999999999,14134.2756183729
0.5149819999999999,14209.591474245615
0.515392,24316.109422498856
0.5155449999999999,25000.00000000102
0.5157209999999999,26229.508196721337
0.5158649999999999,25000.00000000102
0.5160259999999999,24539.87730060985
0.5161849999999999,20356.23409669332
0.5163519999999999,21621.621621622704
0.5165779999999999,27586.20689655054
0.5167219999999999,27491.408934714498
0.5168679999999999,27777.77777778212
0.5170129999999998,24691.358024692046
0.5171559999999998,24767.801857588038
0.5173369999999998,28070.17543859849
0.5174789999999998,21505.37634408377
0.5176219999999998,19753.086419753636
0.5178509999999998,22222.22222222741
0.5180269999999998,17857.1428571427
0.5182109999999998,19950.12468827454
0.5184749999999998,28880.866425984153
0.5186119999999999,28880.866425984153
0.5187519999999999,28985.507246371144
0.5188889999999999,29411.764705876947
0.5190279999999999,29090.90909090642
0.519161,21390.374331551633
0.519303,21621.621621622704
0.519535,22038.567493112812
0.5196729999999999,22099.447513806997
0.519898,24242.424242420388
0.520035,24096.38554216875
0.520228,28673.835125445024
0.520367,27681.66089965554
0.520507,27586.2068965611
0.520656,26936.026936027687
0.520797,26578.073089701375
0.520953,26315.789473686724
0.521098,21108.17941952405
0.521257,19704.433497536098
0.521477,24615.384615383122
0.521663,28673.835125445024
0.521802,28169.014084500894
0.521942,28070.17543859849
0.522086,9546.539379476144
0.522227,9557.945041816276
0.5229239999999999,28169.014084500894
0.523064,27681.66089965554
0.523208,27681.66089965554
0.523353,28169.014084500894
0.523497,28673.835125445024
0.523637,28880.86642599573
0.523776,28673.835125456437
0.523914,27874.564459937483
0.5240549999999999,28169.014084511906
0.5242009999999999,14362.657091564037
0.5243389999999999,12480.499219968746
0.5247579999999998,15503.875968990085
0.5249799999999999,11594.202898551255
0.5252739999999999,13114.754098360669
0.5256699999999999,17857.1428571427
0.5258839999999999,21739.1304347871
0.5261179999999999,17897.091722596073
0.5262519999999998,17738.359201774656
0.5265649999999998,28268.551236756888
0.5267029999999998,24169.184290032386
0.5268479999999998,24169.184290032386
0.5270339999999998,16427.10472279584
0.5271789999999997,14466.546112117965
0.5275209999999997,22471.91011236511
0.5277319999999996,27303.75426621275
0.5278769999999996,19230.769230765396
0.5280249999999996,19277.10843373242
0.5282929999999997,16771.488469599542
0.5284399999999997,11816.83899556801
0.5287699999999997,15209.125475284407
0.5291169999999997,24767.801857579525
0.5292959999999998,25806.451612900524
0.5294399999999998,25559.105431309275
0.5296059999999998,27874.5644599267
