Time,Frequency
7.599999999999999e-05,51948.05194805195
0.00015299999999999998,51282.05128205128
0.00022999999999999998,50314.46540880504
0.000309,49689.440993788834
0.00038899999999999997,49079.754601226996
0.00046999999999999993,48780.48780487802
0.000552,48484.84848484849
0.000634,47904.19161676648
0.000717,47619.04761904763
0.000801,47337.27810650888
0.0008849999999999999,46783.62573099417
0.0009699999999999999,46511.627906976784
0.0010559999999999999,45977.0114942529
0.0011419999999999998,45714.28571428571
0.0012299999999999998,45454.54545454547
0.0013169999999999998,44943.8202247191
0.0014059999999999997,44692.737430167566
0.0014949999999999998,44444.44444444444
0.0015849999999999998,44198.89502762432
0.0016749999999999998,43956.043956043985
0.0017659999999999998,43715.84699453552
0.0018569999999999997,43243.24324324318
0.0019489999999999998,43010.75268817195
0.002042,43010.75268817195
0.002135,42553.19148936165
0.0022280000000000004,42328.04232804234
0.0023230000000000004,42105.263157894726
0.0024170000000000003,41884.81675392666
0.0025130000000000005,41666.666666666686
0.0026080000000000005,41450.77720207253
0.0027050000000000004,41666.66666666659
0.0028010000000000005,41237.11340206182
0.0028970000000000007,40816.32653061225
0.0029950000000000007,40816.32653061225
0.0030930000000000007,40816.32653061225
0.0031910000000000007,40609.137055837535
0.0032890000000000007,40404.04040404035
0.003388000000000001,40201.00502512564
0.003487000000000001,40201.00502512564
0.0035870000000000008,40201.00502512564
0.003686000000000001,40201.00502512564
0.0037860000000000007,39999.999999999985
0.003885000000000001,39603.96039603953
0.003986000000000001,39603.96039603945
0.004087000000000001,39408.866995073884
0.004188000000000002,39408.866995073884
0.004290000000000001,39603.96039603945
0.004391000000000002,39408.866995073884
0.004492000000000002,39408.866995073884
0.004594000000000002,39408.866995073884
0.004695000000000002,39024.39024390254
0.004797000000000002,38647.342995169136
0.004900000000000002,38277.51196172249
0.0050040000000000015,38461.53846153849
0.0051090000000000016,38834.95145631076
0.005212000000000001,38834.95145631076
0.005315000000000001,38834.95145631076
0.005418000000000001,38647.342995169136
0.005521000000000001,38647.342995169136
0.005625000000000001,38647.342995169136
0.0057280000000000005,38277.51196172249
0.005832,38095.23809523808
0.0059370000000000004,38095.23809523808
0.0060420000000000005,37914.69194312792
0.0061470000000000006,37735.84905660371
0.006253000000000001,37914.69194312792
0.006359000000000001,37914.69194312792
0.006464000000000001,37735.84905660371
0.006570000000000001,37735.84905660371
0.006676000000000001,37735.84905660371
0.006782000000000002,37735.84905660371
0.006888000000000002,37558.6854460093
0.006994000000000002,37558.6854460093
0.007101000000000002,37558.6854460093
0.0072070000000000025,37383.17757009334
0.007314000000000003,37383.17757009334
0.007421000000000003,37209.30232558141
0.0075280000000000034,37037.037037037175
0.007636000000000003,37037.03703703703
0.007744000000000003,36866.35944700458
0.007852000000000003,36697.24770642211
0.007961000000000003,36866.35944700458
0.008070000000000003,36866.35944700458
0.008178000000000003,36866.35944700458
0.008287000000000003,37209.30232558141
0.008395000000000003,37209.30232558141
0.008502000000000003,37037.037037036884
0.008610000000000003,36866.35944700458
0.008718000000000004,36697.24770642211
0.008827000000000003,36697.24770642211
0.008936000000000003,36697.24770642211
0.009045000000000003,32388.663967611472
0.085428,49079.75460122805
0.085509,48484.84848484893
0.085591,48192.7710843375
0.085674,48192.7710843375
0.085757,47904.19161676633
0.08584,47619.047619047196
0.085924,47337.27810650818
0.086008,46511.62790697526
0.086093,45714.2857142835
0.08618,45977.011494250895
0.08626800000000001,45714.2857142835
0.08635400000000001,30188.679245282867
0.08644300000000002,17094.017094017232
0.08661900000000002,11379.80085348514
0.08732200000000001,8298.755186721935
0.08816900000000001,17505.470459518634
0.08828600000000002,15748.03149606316
0.08862600000000001,14260.24955436705
0.08879400000000001,14897.57914338893
0.08918700000000002,32786.88524590055
0.08933100000000002,40201.00502512467
0.08943100000000002,18957.345971563725
0.08953000000000003,17021.276595744745
0.08985300000000003,32520.32520325253
0.09000000000000002,39999.99999999886
0.09009900000000003,39800.99502487429
0.09020000000000003,31999.99999999997
0.09030000000000003,22598.87005649761
0.09045000000000003,14336.917562724295
0.09065400000000003,12084.59214501518
0.09100800000000002,17391.304347826008
0.09131600000000002,24316.1094224927
0.09146800000000002,19559.902200489345
0.09164500000000002,9708.737864077772
0.09187700000000001,9661.835748792324
0.09246900000000001,22099.44751381208
0.09270500000000001,11644.832605531175
0.218557,50000.00000000204
0.218636,49079.75460122805
0.218717,48484.84848484893
0.218799,48192.7710843375
0.218882,47904.19161676633
0.218965,47619.047619047196
0.219049,47058.8235294108
0.219133,46783.62573099293
0.219219,46783.62573099293
0.219304,46242.77456647225
0.21939,45977.011494250895
0.219477,45714.2857142835
0.219564,45454.545454543004
0.21965200000000001,45197.740112991676
0.21974000000000002,44943.820224716204
0.21982900000000002,44692.73743016448
0.21991800000000003,44444.44444444111
0.22000800000000004,44444.44444444111
0.22009800000000004,44198.895027620776
0.22018800000000005,43715.84699453158
0.22027900000000006,43715.84699453158
0.22037100000000007,43478.26086956108
0.22046200000000007,43243.243243238925
0.22055500000000008,43243.243243238925
0.2206470000000001,42780.74866309692
0.2207400000000001,42553.19148935684
0.2208340000000001,42553.19148935684
0.22092800000000012,42553.19148935684
0.22102200000000014,42105.26315788953
0.22111600000000015,41884.81675392133
0.22121200000000016,41884.81675392133
0.22130700000000017,41884.81675392133
0.22140300000000018,41666.666666661135
0.2214980000000002,41237.11340205601
0.2215950000000002,41237.11340205601
0.22169200000000022,41237.11340205601
0.22178900000000024,41237.11340205601
0.22188600000000025,41025.64102564087
0.22198300000000026,40609.13705584272
0.22208100000000025,40609.13705584272
0.22218000000000024,40609.13705584272
0.22227800000000023,40404.04040404531
0.2223770000000002,40201.00502513028
0.2224760000000002,40000.0000000044
0.2225760000000002,40000.0000000044
0.22267600000000018,40000.0000000044
0.22277600000000017,40000.0000000044
0.22287600000000016,39800.99502487978
0.22297600000000015,39800.99502487978
0.22307700000000014,39603.96039604353
0.22317700000000013,39408.86699507759
0.22327900000000012,39603.96039604353
0.2233800000000001,39408.86699507759
0.2234810000000001,39408.86699507759
0.2235830000000001,39408.86699507759
0.22368400000000008,39215.68627451327
0.22378600000000007,39215.68627451327
0.22388800000000006,39024.390243905684
0.22399000000000005,38834.9514563137
0.22409300000000004,38834.9514563137
0.22419600000000003,38834.9514563137
0.22429900000000003,38834.9514563137
0.22440200000000002,38647.342995171886
0.224505,38647.342995171886
0.224609,38647.342995171886
0.224712,38461.53846154106
0.224816,38461.53846154106
0.22491999999999998,38461.53846154106
0.22502399999999997,38277.51196172487
0.22512799999999997,38095.238095240275
0.22523299999999996,37914.69194312995
0.22533799999999996,37914.69194312995
0.22544399999999995,38095.238095240275
0.22554899999999994,38095.238095240275
0.22565399999999994,38095.238095240275
0.22575899999999993,37914.69194312995
0.22586399999999993,37735.849056605555
0.22596999999999992,37735.849056605555
0.22607599999999992,37558.68544601098
0.2261819999999999,37558.68544601098
0.2262889999999999,37558.68544601098
0.2263949999999999,37209.30232558261
0.2265019999999999,37209.30232558261
0.2266099999999999,37383.17757009486
0.2267169999999999,37209.30232558261
0.2268239999999999,37209.30232558261
0.22693199999999988,37209.30232558261
0.22703899999999988,37037.03703703807
0.22714699999999988,37209.30232558261
0.22725499999999987,37209.30232558261
0.22736199999999987,37037.03703703807
0.22746999999999987,36697.2477064227
0.22757799999999986,36866.35944700546
0.22768799999999986,37558.68544601098
0.22779499999999986,36866.35944700546
0.22790099999999985,36363.636363636695
0.22801199999999985,37735.849056605555
0.22812099999999985,38277.51196172487
0.22822399999999984,37558.68544601098
0.22832999999999984,37735.849056605555
0.22843699999999983,18223.234624145996
0.3357899999999998,42780.748663103266
0.3359029999999998,52980.13245032683
0.3359769999999998,51948.05194805617
0.3360539999999998,52287.58169934154
0.3361309999999998,51948.05194803744
0.3362069999999998,50955.41401273294
0.33628499999999983,50632.91139240779
0.33636399999999983,50314.46540879863
0.3364429999999998,49999.99999998469
0.33652299999999985,49382.71604936717
0.3366029999999999,48780.487804862285
0.3366849999999999,48780.487804862285
0.3367669999999999,48192.7710843375
0.33684899999999995,47904.19161677429
0.3369329999999999,47619.047619047196
0.3370159999999999,47337.27810651596
0.33710099999999993,47058.82352942617
0.3371849999999999,46511.627906990274
0.3372709999999999,46511.627906990274
0.33735699999999985,46242.774566479675
0.3374429999999998,45714.28571429075
0.33752999999999983,45454.545454557345
0.3376179999999998,45197.74011299876
0.3377059999999998,44943.820224716204
0.3377949999999998,44943.820224716204
0.3378839999999998,44692.73743017141
0.3379729999999998,44198.89502762755
0.3380629999999998,43956.043956040216
0.3381539999999998,43956.043956040216
0.3382449999999998,43715.84699453821
0.3383359999999998,43478.2608695742
0.3384279999999998,43243.24324324541
0.33851999999999977,43010.75268816754
0.3386129999999998,43010.75268816754
0.3387059999999998,42780.748663103266
0.3387989999999998,42328.042328043506
0.3388929999999998,42328.042328043506
0.3389879999999998,42328.042328043506
0.3390819999999998,42105.26315788953
0.3391769999999998,41884.81675392742
0.3392719999999998,41666.66666667318
0.3393679999999998,41666.66666667318
0.33946399999999977,41666.66666667318
0.33955999999999975,41450.777202072815
0.33965599999999974,41237.11340205601
0.33975299999999975,41025.64102564087
0.33984999999999976,40816.32653061766
0.33994799999999975,40816.32653061766
0.34004599999999974,40816.32653061766
0.3401439999999997,40609.137055837
0.3402419999999997,40404.04040403398
0.3403409999999997,40404.04040403398
0.34043999999999974,40201.00502512467
0.34053899999999976,40201.00502512467
0.34063899999999975,40201.00502512467
0.34073799999999976,39800.99502487429
0.34083799999999975,39800.99502487429
0.34093899999999977,39800.99502487429
0.34103899999999976,39603.96039603265
0.3411399999999998,39603.96039603265
0.3412409999999998,39408.866995072196
0.3413419999999998,39408.866995072196
0.3414439999999998,39408.866995072196
0.3415449999999998,39215.68627451327
0.3416469999999998,39024.390243900394
0.3417489999999998,39024.390243900394
0.3418519999999998,39024.390243900394
0.3419539999999998,38834.951456303235
0.34205699999999983,38834.951456303235
0.34215999999999985,38834.951456303235
0.3422629999999999,38834.951456303235
0.3423659999999999,38647.342995166706
0.3424689999999999,38461.53846154106
0.3425729999999999,38461.53846154106
0.3426769999999999,38461.53846154106
0.3427809999999999,38277.51196171979
0.3428849999999999,38277.51196171979
0.3429899999999999,38277.51196171979
0.3430939999999999,38095.238095230205
0.3431989999999999,37914.691943124955
0.34330399999999994,37735.849056605555
0.34340999999999994,37914.691943124955
0.34351599999999993,37735.849056595674
0.34362099999999995,37558.685446006086
0.343728,37558.685446006086
0.343834,37383.177570085165
0.343941,37558.685446006086
0.344048,37558.685446006086
0.344154,37383.177570085165
0.34426100000000004,37558.685446006086
0.34436800000000006,37735.849056605555
0.34447400000000006,37735.849056605555
0.34458000000000005,37914.691943124955
0.34468600000000005,37914.691943124955
0.34479100000000007,37735.849056605555
0.34489700000000006,37735.849056605555
0.34500300000000006,37558.685446006086
0.34510900000000005,37558.685446006086
0.3452160000000001,37209.30232557781
0.3453220000000001,36866.359447000745
0.3454310000000001,35555.55555555947
0.3455390000000001,36036.03603603604
0.3456560000000001,37209.30232557781
0.3457610000000001,32000.000000003525
0.3458710000000001,25396.82539682909
0.34601100000000007,28469.750889682175
0.34618600000000005,23952.095808383165
0.34629200000000004,17429.193899782622
0.34652000000000005,12030.075187970446
0.44306999999999996,53333.33333331947
0.443144,52631.578947354225
0.44322,52287.58169934154
0.443296,51948.05194805617
0.443373,51612.90322580105
0.44345,50955.41401273294
0.44352800000000003,50632.91139240779
0.44360700000000003,50632.91139240779
0.443686,50314.46540879863
0.443765,49382.71604936717
0.44384500000000005,48780.487804862285
0.44392700000000007,48780.487804862285
0.4440090000000001,48192.7710843375
0.4440910000000001,47904.19161677429
0.4441750000000001,47619.047619047196
0.4442580000000001,47058.8235294108
0.4443430000000001,46783.62573100052
0.4444280000000001,46511.627906990274
0.4445140000000001,46242.774566479675
0.44460000000000005,45714.28571429075
0.44468700000000005,45197.74011299876
0.44477500000000003,45197.74011299876
0.44486400000000004,45197.74011299876
0.444952,44692.73743017141
0.445041,44692.73743017141
0.445131,44444.44444444111
0.44522,43715.84699453821
0.445311,43715.84699453821
0.445403,43715.84699453821
0.445494,43715.84699453821
0.445586,43478.26086956108
0.445677,43010.75268816754
0.44577,42780.748663103266
0.445863,42553.191489369405
0.445957,42553.191489369405
0.446051,42553.191489369405
0.44614499999999996,42328.042328043506
0.44623899999999994,42105.26315788953
0.44633399999999995,42105.26315788953
0.44642899999999996,42105.26315788953
0.446524,41884.81675392742
0.446619,41450.777202072815
0.446715,41450.777202072815
0.446812,41450.777202072815
0.44690799999999997,41237.11340205601
0.447005,40816.32653060611
0.447102,40816.32653060611
0.447201,41237.11340205601
0.44729800000000003,40404.04040403398
0.44739500000000004,40201.00502512467
0.44749600000000006,40609.137055837
0.44759400000000005,40404.04040403398
0.44769300000000006,39999.999999993306
0.4477920000000001,39999.999999993306
0.4478930000000001,40201.00502512467
0.4479920000000001,39800.99502487429
0.4480920000000001,39800.99502487429
0.4481930000000001,40000.0000000044
0.4482930000000001,39603.96039604353
0.4483930000000001,39603.96039604353
0.4484950000000001,39603.96039604353
0.4485950000000001,39603.96039604353
0.44869700000000007,39800.99502487429
0.44879700000000006,39408.866995072196
0.4488980000000001,39215.68627451327
0.44900000000000007,39215.68627451327
0.44910200000000006,38834.9514563137
0.44920400000000005,39024.390243900394
0.44930800000000004,39215.6862745026
0.44940900000000006,39024.390243900394
0.4495120000000001,39215.68627451327
0.44961400000000007,39024.390243900394
0.44971600000000006,38834.951456303235
0.4498190000000001,38647.342995166706
0.4499220000000001,38461.53846154106
0.4500260000000001,38647.342995166706
0.4501300000000001,38461.53846153079
0.4502330000000001,38461.53846153079
0.4503380000000001,38461.53846153079
0.45044100000000015,38277.51196171979
0.45054600000000017,38461.53846154106
0.45065000000000016,38277.51196171979
0.45075400000000015,38277.51196171979
0.4508590000000002,37914.691943124955
0.45096300000000017,37914.691943124955
0.4510700000000002,33755.2742616052
0.4511740000000002,22988.505747125448
0.5483600000000002,61538.46153847883
0.5484240000000001,60150.37593982713
0.5484900000000001,59259.259259260914
0.5485570000000002,57971.01449276561
0.5486250000000001,56737.58865245903
0.5486950000000002,55555.55555554283
0.5487660000000002,54054.05405404054
0.5488390000000002,53333.333333299735
0.5489140000000002,53333.333333299735
0.5489890000000003,52980.13245032683
0.5490640000000003,52287.58169936051
0.5491400000000003,51282.05128203649
0.5492170000000003,50632.91139237222
0.5492960000000003,50632.91139237222
0.5493750000000004,49999.99999998469
0.5494540000000004,49382.71604938409
0.5495350000000004,49079.7546012197
0.5496160000000004,48484.84848482446
0.5496980000000005,48192.77108430527
0.5497810000000005,47904.19161675837
0.5498640000000006,47619.047619062934
0.5499480000000005,47337.27810651596
0.5500320000000005,46783.62573098533
0.5501170000000005,46511.62790696025
0.5502030000000006,46242.774566479675
0.5502890000000006,45977.01149428023
0.5503760000000005,45714.28571430525
0.5504630000000005,45454.545454557345
0.5505510000000005,45197.74011299876
0.5506390000000004,44692.737430157555
0.5507280000000004,44444.44444442741
0.5508180000000005,44444.44444442741
0.5509080000000005,44198.89502762755
0.5509980000000005,43956.04395606703
0.5510890000000005,43956.04395606703
0.5511800000000004,43478.2608695742
0.5512710000000004,43243.24324324541
0.5513640000000004,43243.24324324541
0.5514560000000004,42780.74866309057
0.5515490000000004,42553.19148934427
0.5516430000000004,42328.042328043506
0.5517370000000005,42105.26315791414
0.5518320000000004,42105.26315791414
0.5519270000000004,41884.816753939594
0.5520220000000003,41666.66666667318
0.5521180000000003,41666.66666667318
0.5522140000000003,41450.777202072815
0.5523100000000003,41025.64102562919
0.5524070000000003,41025.64102562919
0.5525050000000004,41025.64102562919
0.5526020000000004,40609.137055837
0.5527000000000004,40609.137055837
0.5527990000000004,40609.137055837
0.5528970000000004,40404.040404056635
0.5529960000000004,40201.005025135884
0.5530950000000003,40000.0000000044
0.5531950000000003,40000.0000000044
0.5532950000000003,39800.99502487429
0.5533950000000003,39800.99502487429
0.5534960000000003,39603.96039603265
0.5535960000000003,39603.96039603265
0.5536980000000004,39603.96039603265
0.5537980000000003,39215.68627449193
0.5539000000000004,39215.68627449193
0.5540020000000004,39215.68627449193
0.5541040000000005,39024.390243900394
0.5542060000000005,39024.390243900394
0.5543090000000005,39024.390243900394
0.5544110000000005,38647.34299517707
0.5545140000000005,38647.34299517707
0.5546180000000005,38647.34299517707
0.5547210000000005,38277.51196171979
0.5548250000000005,38277.51196171979
0.5549300000000005,38461.53846154106
0.5550340000000005,38277.51196171979
0.5551380000000005,37914.69194311498
0.5552430000000005,37914.69194311498
0.5553490000000005,38095.238095230205
0.5554540000000006,37914.69194311498
0.5555590000000006,37558.685446006086
0.5556650000000006,37558.685446006086
0.5557720000000006,37735.849056585794
0.5558780000000006,37914.69194311498
0.5559840000000007,37914.69194311498
0.5560890000000007,37914.69194311498
0.5561950000000008,37914.69194311498
0.5563000000000008,37558.685446006086
0.5564060000000008,37735.849056605555
0.5565130000000008,37735.849056605555
0.5566180000000008,24844.720496899543
0.5567250000000008,15904.57256461485
0.6451690000000008,45714.28571427625
0.6452660000000008,50632.91139240779
0.6453440000000008,49382.71604938409
0.6454240000000008,48780.487804862285
0.6455060000000008,48484.84848482446
0.6455880000000008,48192.77108430527
0.6456710000000009,47904.19161675837
0.6457540000000009,47337.27810651596
0.6458380000000009,47337.27810651596
0.6459230000000009,46511.627906990274
0.6460070000000009,45714.28571430525
0.6460950000000009,45977.01149428023
0.6461820000000008,45197.74011299876
0.6462690000000008,44444.44444442741
0.6463590000000008,45197.74011299876
0.6464490000000008,45197.74011299876
0.6465360000000008,44444.44444442741
0.6466260000000008,44444.44444442741
0.6467160000000008,43956.043956040216
0.6468060000000009,43715.84699455147
0.6468980000000009,43956.04395606703
0.6469890000000008,43478.2608695742
0.6470800000000008,43243.24324324541
0.6471730000000008,43243.24324324541
0.6472650000000008,43010.75268816754
0.6473580000000008,42780.74866309057
0.6474510000000008,42553.19148934427
0.6475450000000008,42328.042328043506
