Time,Frequency
7.8e-05,50632.91139240507
0.000156,49689.44099378882
0.000236,49079.754601226996
0.000317,48484.84848484849
0.000399,47904.19161676647
0.000482,47337.27810650888
0.000566,47058.82352941176
0.000651,46783.62573099414
0.000736,46242.77456647396
0.000822,45977.011494252845
0.0009090000000000001,45714.28571428571
0.0009960000000000001,45454.54545454547
0.0010840000000000001,45197.74011299439
0.001172,44943.8202247191
0.001261,44692.737430167566
0.00135,44692.737430167625
0.00144,44444.44444444449
0.001529,44198.89502762432
0.00162,44198.89502762432
0.00171,43956.043956043985
0.0018009999999999999,43715.84699453557
0.0018919999999999998,43478.26086956524
0.0019839999999999997,43478.26086956519
0.0020759999999999997,43478.26086956519
0.002168,43243.24324324318
0.00226,43010.75268817195
0.002353,43010.75268817195
0.0024460000000000003,42780.74866310158
0.0025390000000000005,42780.74866310158
0.0026330000000000004,42780.74866310158
0.0027260000000000006,42553.19148936175
0.0028200000000000005,42553.19148936175
0.0029140000000000004,42328.04232804234
0.0030080000000000003,42328.04232804234
0.0031030000000000003,42328.04232804234
0.003197,42105.263157894726
0.0032920000000000002,42105.263157894726
0.0033870000000000003,42105.263157894726
0.0034820000000000003,42105.263157894726
0.0035770000000000003,42105.263157894726
0.0036720000000000004,41884.81675392666
0.0037670000000000004,41884.81675392666
0.0038630000000000005,41884.81675392675
0.003958000000000001,41884.81675392685
0.004054,41884.81675392685
0.004149,41666.66666666678
0.004245,41666.66666666678
0.004340999999999999,41666.66666666678
0.004436999999999999,41666.66666666678
0.004532999999999999,41666.66666666678
0.004628999999999999,41450.777202072626
0.004724999999999998,41450.777202072626
0.004821999999999998,41450.777202072626
0.004917999999999998,41450.777202072626
0.005014999999999998,41450.777202072626
0.0051109999999999975,41450.777202072626
0.005207999999999997,41450.777202072626
0.005303999999999997,41237.113402061914
0.005400999999999997,41237.113402061914
0.005497999999999997,41450.777202072626
0.005594999999999997,41450.777202072626
0.005690999999999996,41237.113402061914
0.005787999999999996,41237.113402061914
0.005884999999999996,41237.113402061914
0.005981999999999996,41025.64102564105
0.006078999999999996,41025.64102564105
0.006176999999999996,41237.113402061914
0.006273999999999996,41237.113402061914
0.006370999999999996,41237.113402061914
0.0064679999999999955,41025.64102564105
0.006564999999999995,41025.64102564105
0.006662999999999995,41237.113402061914
0.006759999999999995,41025.64102564105
0.006856999999999995,41025.64102564105
0.006954999999999995,41237.113402061914
0.007051999999999995,41237.113402061914
0.007148999999999995,41237.113402061914
0.007245999999999995,41237.113402061914
0.0073429999999999945,41237.113402061914
0.007439999999999994,41237.113402061914
0.007536999999999994,41237.113402061914
0.007633999999999994,41237.11340206173
0.007730999999999994,41237.11340206173
0.007827999999999995,41450.77720207244
0.007924999999999995,41450.77720207244
0.008020999999999995,41237.113402061914
0.008117999999999995,41450.77720207244
0.008214999999999995,41666.66666666641
0.008310999999999995,41666.66666666641
0.008406999999999996,41666.66666666641
0.008502999999999997,41666.66666666641
0.008598999999999997,41884.81675392666
0.008694999999999998,41666.66666666678
0.008789999999999997,41450.77720207244
0.008886999999999997,41450.77720207244
0.008982999999999998,40201.00502512573
0.009079999999999998,17897.091722595098
0.10074199999999998,53333.33333332934
0.10081699999999999,52631.578947368645
0.100892,51612.90322581029
0.10096899999999999,51282.05128205474
0.10104699999999998,51282.05128205474
0.10112499999999998,50632.91139240779
0.10120299999999997,50000.00000000204
0.10128299999999997,49382.71604938409
0.10136299999999997,48484.84848484893
0.10144499999999997,47904.19161676633
0.10152799999999997,47619.047619047196
0.10161199999999997,47337.27810650818
0.10169599999999997,46783.62573099293
0.10178099999999997,46511.62790697526
0.10186699999999997,46242.77456647225
0.10195299999999997,45977.011494250895
0.10203999999999998,45714.2857142835
0.10212699999999998,45454.545454543004
0.10221499999999999,45454.545454543004
0.10230299999999999,45197.740112991676
0.102391,44943.820224716204
0.10248,44692.73743016448
0.10256900000000001,44692.73743016448
0.10265900000000001,44692.73743016448
0.10274800000000002,44198.89502762416
0.10283800000000003,44198.89502762416
0.10292900000000002,44198.89502762416
0.10301900000000003,43956.04395604692
0.10311000000000002,43956.04395604692
0.10320100000000001,43956.04395604692
0.10329200000000001,43715.84699453821
0.103383,43715.84699453821
0.103475,43715.84699453821
0.10356599999999999,43478.260869567646
0.10365799999999999,43243.24324324541
0.10374999999999998,43243.24324324541
0.10384299999999998,43478.260869567646
0.10393499999999997,43243.24324324541
0.10402699999999997,43010.752688173954
0.10411999999999996,43010.752688173954
0.10421299999999996,43010.752688173954
0.10430599999999995,43010.752688173954
0.10439899999999995,43010.752688173954
0.10449199999999995,43010.752688173954
0.10458499999999994,42780.748663103266
0.10467799999999994,42780.748663103266
0.10477199999999993,42780.748663103266
0.10486499999999993,42553.19148936312
0.10495899999999993,42553.19148936312
0.10505299999999992,42553.19148936312
0.10514699999999992,42553.19148936312
0.10524099999999992,42553.19148936312
0.10533499999999991,42553.19148936312
0.10542899999999991,42328.042328043506
0.10552299999999991,42328.042328043506
0.1056179999999999,42328.042328043506
0.1057119999999999,42328.042328043506
0.1058069999999999,42328.042328043506
0.1059009999999999,42328.042328043506
0.1059959999999999,42328.042328043506
0.10608999999999989,42105.263157895686
0.10618499999999989,42105.263157895686
0.10627999999999989,42105.263157895686
0.10637499999999989,42105.263157895686
0.10646999999999988,42105.263157895686
0.10656499999999988,42105.263157895686
0.10665999999999988,42105.263157895686
0.10675499999999988,42105.263157895686
0.10684999999999988,41884.81675392742
0.10694499999999987,41884.81675392742
0.10704099999999987,42105.263157895686
0.10713599999999987,41884.81675392742
0.10723099999999987,41884.81675392742
0.10732699999999987,41884.81675392742
0.10742199999999986,41884.81675392742
0.10751799999999986,41884.81675392742
0.10761299999999986,41884.81675392742
0.10770899999999986,41884.81675392742
0.10780399999999986,41884.81675392742
0.10789999999999986,41884.81675392742
0.10799499999999986,41884.81675392742
0.10809099999999985,41884.81675392742
0.10818599999999985,41884.81675392742
0.10828199999999985,41884.81675392742
0.10837699999999985,41884.81675392742
0.10847299999999985,41884.81675392742
0.10856799999999985,41666.66666666716
0.10866399999999984,41884.81675392742
0.10875999999999984,41884.81675392742
0.10885499999999984,41884.81675392742
0.10895099999999984,42105.263157895686
0.10904599999999984,42105.263157895686
0.10914099999999984,41884.81675392742
0.10923599999999983,41884.81675392742
0.10933199999999983,42105.263157895686
0.10942699999999983,42105.263157895686
0.10952199999999983,42105.263157895686
0.10961699999999983,42105.263157895686
0.10971199999999982,41884.81675392742
0.10980699999999982,41666.66666666716
0.10990299999999982,41025.64102564087
0.10999899999999982,40609.137055837
0.11009799999999982,40404.040404039646
0.11019599999999982,36697.2477064227
0.11029599999999982,37558.68544601098
0.11041399999999982,41884.81675392742
0.11050899999999982,41884.81675392742
0.11060499999999981,42105.263157895686
0.11069999999999981,29962.546816479025
0.1966529999999998,48780.4878048788
0.1967349999999998,48484.84848484893
0.1968169999999998,47904.19161676633
0.1968999999999998,47904.19161676633
0.1969839999999998,47904.19161676633
0.1970669999999998,47619.047619047196
0.1971509999999998,47337.27810650818
0.1972349999999998,47058.8235294108
0.1973199999999998,46511.62790697526
0.1974049999999998,45977.011494250895
0.1974919999999998,45714.2857142835
0.1975789999999998,45197.740112991676
0.19766699999999982,44943.820224716204
0.19775599999999982,44692.73743016448
0.19784499999999983,44444.44444444111
0.19793499999999983,44198.895027620776
0.19802499999999984,43956.043956040216
0.19811599999999985,43715.84699453158
0.19820699999999986,43478.26086956108
0.19829899999999986,43478.26086956108
0.19839099999999987,43243.243243238925
0.19848299999999988,43010.75268816754
0.1985759999999999,43010.75268816754
0.1986689999999999,43010.75268816754
0.1987619999999999,42780.74866309692
0.19885499999999992,42553.19148935684
0.19894899999999993,42553.19148935684
0.19904299999999994,42553.19148935684
0.19913699999999995,42553.19148935684
0.19923099999999996,42553.19148935684
0.19932499999999997,42328.04232803729
0.19941899999999999,42105.26315788953
0.199514,42105.26315788953
0.199609,42105.26315788953
0.19970400000000002,42105.26315788953
0.19979900000000003,42105.26315788953
0.19989400000000004,42105.26315788953
0.19998900000000006,41884.81675392133
0.20008400000000007,41884.81675392133
0.20018000000000008,41884.81675392133
0.2002750000000001,41666.666666661135
0.2003710000000001,41666.666666661135
0.20046700000000012,41666.666666661135
0.20056300000000013,41666.666666661135
0.20065900000000014,41666.666666661135
0.20075500000000016,41666.666666661135
0.20085100000000017,41450.77720206685
0.20094700000000018,41450.77720206685
0.2010440000000002,41450.77720206685
0.2011400000000002,41450.77720206685
0.20123700000000022,41450.77720206685
0.20133300000000023,41237.11340205601
0.20143000000000025,41450.77720206685
0.20152700000000026,41450.77720206685
0.20162300000000027,41237.11340205601
0.2017200000000003,41237.11340205601
0.2018170000000003,41237.11340205601
0.20191400000000032,41237.11340205601
0.20201100000000033,41237.11340205601
0.20210800000000034,41237.11340205601
0.20220500000000036,41237.11340205601
0.20230200000000037,41025.64102564087
0.20239900000000038,41025.64102564087
0.20249700000000037,41237.11340205601
0.20259400000000038,41025.64102564087
0.2026910000000004,41025.64102564087
0.20278900000000039,41025.64102564087
0.2028860000000004,41025.64102564087
0.2029840000000004,41025.64102564087
0.2030810000000004,41025.64102564087
0.2031790000000004,41025.64102564087
0.2032760000000004,40816.32653061766
0.2033740000000004,40816.32653061766
0.20347200000000037,41025.64102564087
0.20357000000000036,41025.64102564087
0.20366700000000038,40816.32653061766
0.20376500000000036,40816.32653061766
0.20386300000000035,40816.32653061766
0.20396100000000034,41025.64102564087
0.20405900000000032,41025.64102564087
0.20415600000000034,40816.32653061766
0.20425400000000032,41025.64102564087
0.2043520000000003,41025.64102564087
0.20444900000000032,40816.32653061766
0.2045470000000003,40816.32653061766
0.2046450000000003,40816.32653061766
0.20474300000000029,41025.64102564087
0.20484100000000027,41025.64102564087
0.2049380000000003,41025.64102564087
0.20503600000000027,41025.64102564087
0.2051330000000003,41025.64102564087
0.20523100000000027,41237.11340205601
0.2053280000000003,41237.11340205601
0.2054250000000003,41237.11340205601
0.20552200000000032,41237.11340205601
0.20561900000000033,41025.64102564087
0.20571600000000034,41025.64102564087
0.20581400000000033,40609.137055837
0.20591100000000034,39408.86699507759
0.20601100000000033,37735.849056605555
0.3198110000000003,50000.00000000204
0.3198900000000003,49382.71604938409
0.3199710000000003,49382.71604938409
0.3200520000000003,49079.7546012197
0.3201330000000003,49079.7546012197
0.3202150000000003,48780.4878048788
0.3202960000000003,48192.7710843375
0.3203790000000003,47904.19161677429
0.3204620000000003,47619.047619062934
0.3205460000000003,47058.82352942617
0.32063000000000025,46511.627906990274
0.3207160000000002,46511.627906990274
0.3208020000000002,46242.774566479675
0.3208880000000002,45714.28571429075
0.3209750000000002,45454.545454557345
0.32106300000000015,45197.74011299876
0.32115100000000013,44943.820224716204
0.32124000000000014,44943.820224716204
0.32132900000000014,44692.73743017141
0.32141800000000015,44444.44444445482
0.3215080000000001,44444.44444445482
0.3215980000000001,44198.89502762755
0.3216880000000001,44198.89502762755
0.3217790000000001,43956.043956053625
0.32186900000000007,43956.043956053625
0.32196100000000005,43956.043956053625
0.32205100000000003,43715.84699453821
0.322143,43715.84699453821
0.322234,43478.2608695742
0.322326,43478.2608695742
0.322418,43478.2608695742
0.32250999999999996,43243.24324324541
0.32260199999999994,43243.24324324541
0.32269499999999995,43243.24324324541
0.32278699999999994,43243.24324324541
0.32287999999999994,43243.24324324541
0.3229719999999999,43010.75268816754
0.32306499999999994,43010.75268816754
0.32315799999999995,43010.75268816754
0.32325099999999996,42780.748663103266
0.32334399999999996,42780.748663103266
0.32343799999999995,43010.75268816754
0.32353099999999996,42780.748663103266
0.32362399999999997,42780.748663103266
0.32371799999999995,42780.748663103266
0.32381099999999996,42553.191489369405
0.32390499999999994,42553.191489369405
0.3239989999999999,42553.191489369405
0.3240929999999999,42553.191489369405
0.3241869999999999,42328.042328043506
0.3242809999999999,42328.042328043506
0.3243759999999999,42328.042328043506
0.32446999999999987,42328.042328043506
0.3245649999999999,42328.042328043506
0.32465899999999986,42328.042328043506
0.3247539999999999,42328.042328043506
0.32484799999999986,42328.042328043506
0.32494299999999987,42328.042328043506
0.32503699999999985,42105.26315788953
0.32513199999999987,42105.26315788953
0.3252269999999999,42105.26315788953
0.3253219999999999,42328.042328043506
0.3254169999999999,42328.042328043506
0.3255109999999999,42105.26315788953
0.3256059999999999,41884.81675392742
0.3257009999999999,41884.81675392742
0.3257969999999999,42105.26315788953
0.3258919999999999,41884.81675392742
0.3259869999999999,41884.81675392742
0.3260829999999999,41884.81675392742
0.3261779999999999,41884.81675392742
0.3262739999999999,41884.81675392742
0.3263689999999999,41884.81675392742
0.3264649999999999,41884.81675392742
0.3265599999999999,41884.81675392742
0.3266559999999999,42105.26315788953
0.3267509999999999,41884.81675392742
0.3268459999999999,41884.81675392742
0.3269419999999999,41884.81675392742
0.3270369999999999,41884.81675392742
0.3271329999999999,41884.81675392742
0.3272279999999999,41884.81675392742
0.3273239999999999,41884.81675392742
0.3274189999999999,41666.66666667318
0.3275149999999999,41884.81675392742
0.3276109999999999,41884.81675392742
0.3277059999999999,41666.66666667318
0.32780199999999987,41884.81675392742
0.32789799999999986,42105.26315788953
0.32799299999999987,42105.26315788953
0.3280879999999999,41884.81675392742
0.3281829999999999,41884.81675392742
0.3282789999999999,42105.26315788953
0.3283739999999999,42105.26315788953
0.3284689999999999,41884.81675392742
0.3285639999999999,42105.263157901834
0.3286599999999999,42105.263157901834
0.3287539999999999,41666.66666667318
0.32884999999999986,22922.636103152636
0.32894599999999985,22727.272727271502
0.32919899999999985,29850.74626865778
0.32929799999999987,20997.375328085935
0.32946699999999984,9049.77375565615
0.4296559999999998,45977.011494250895
0.4297429999999998,45454.545454543004
0.4298299999999998,45197.74011299876
0.42991899999999983,45197.74011299876
0.4300069999999998,44943.820224716204
0.4300959999999998,44692.73743017141
0.4301849999999998,44444.44444445482
0.4302749999999998,44198.89502762755
0.4303649999999998,43956.043956040216
0.4304559999999998,43956.043956040216
0.4305469999999998,43715.84699453821
0.4306379999999998,43243.24324324541
0.4307299999999998,43010.75268816754
0.4308229999999998,43010.75268816754
0.4309159999999998,43010.75268816754
0.4310089999999998,42780.748663103266
0.4311019999999998,42553.191489369405
0.4311959999999998,42553.191489369405
0.4312899999999998,42328.042328043506
0.43138399999999977,42328.042328043506
0.4314789999999998,42328.042328043506
0.43157299999999976,42105.26315788953
0.4316679999999998,42105.26315788953
0.4317629999999998,41884.81675392742
0.4318579999999998,41884.81675392742
0.4319539999999998,41884.81675392742
0.4320489999999998,41666.66666667318
0.4321449999999998,41666.66666667318
0.43224099999999976,41666.66666667318
0.43233699999999975,41666.66666667318
0.43243299999999973,41666.66666667318
0.4325289999999997,41666.66666667318
0.4326249999999997,41666.66666667318
0.4327209999999997,41450.777202072815
0.4328169999999997,41237.11340205601
0.4329139999999997,41237.11340205601
0.4330109999999997,41450.777202072815
0.4331079999999997,41450.777202072815
0.4332039999999997,41237.11340205601
0.4333009999999997,41025.64102564087
0.43339799999999973,41025.64102564087
0.4334959999999997,41237.11340205601
0.43359299999999973,41025.64102564087
0.43368999999999974,41025.64102564087
0.43378799999999973,41237.11340205601
0.43388499999999974,41025.64102564087
0.43398199999999976,41025.64102564087
0.43407999999999974,41025.64102564087
0.43417699999999976,40816.32653061766
0.43427499999999974,40816.32653061766
0.43437299999999973,41025.64102564087
0.4344709999999997,41025.64102564087
0.43456799999999973,40816.32653061766
0.4346659999999997,40609.137055837
0.4347639999999997,40609.137055837
0.4348629999999997,40816.32653061766
0.4349609999999997,40816.32653061766
0.4350589999999997,40816.32653061766
0.4351569999999997,40609.137055837
0.43525499999999967,40609.137055837
0.4353539999999997,40609.137055837
0.4354519999999997,40609.137055837
0.4355509999999997,40609.137055837
0.4356489999999997,40609.137055837
0.4357479999999997,40609.137055837
0.4358459999999997,40609.137055837
0.4359449999999997,40609.137055837
0.4360429999999997,40404.04040403398
0.4361419999999997,40404.04040403398
0.4362409999999997,40609.137055837
0.43633999999999973,40609.137055837
0.4364379999999997,40404.04040403398
0.43653699999999973,40404.04040403398
0.43663599999999975,40404.04040403398
0.43673499999999976,40404.04040403398
0.4368339999999998,40404.04040403398
0.4369329999999998,40404.04040403398
0.4370319999999998,40201.00502512467
0.4371309999999998,40201.00502512467
0.4372309999999998,40404.04040403398
0.43732999999999983,40404.04040403398
0.43742899999999985,40404.04040403398
0.43752799999999986,40404.04040403398
0.4376269999999999,40404.04040403398
0.4377259999999999,40404.04040403398
0.4378249999999999,40404.04040403398
0.4379239999999999,40404.04040403398
0.43802299999999994,40404.04040403398
0.43812199999999996,40404.04040403398
0.43822099999999997,40404.04040403398
0.43832,40404.04040403398
0.438419,40404.04040403398
0.438518,40609.137055837
0.43861700000000003,40816.32653061766
0.438715,40609.137055837
0.438813,40609.137055837
0.438912,40609.137055837
0.43901,40609.137055837
0.439109,40609.137055837
0.439207,40201.00502512467
0.43930600000000003,39800.99502487429
0.439406,26229.508196721337
0.535784,47619.047619062934
0.535868,47619.047619062934
0.535952,47337.27810651596
0.536036,47058.8235294108
0.536121,47058.8235294108
0.536206,47058.8235294108
0.536291,46783.62573098533
0.536376,46511.62790696025
0.536462,46242.774566479675
0.536548,45714.28571430525
0.536635,45714.28571430525
0.536723,45454.545454557345
0.5368099999999999,44943.820224716204
0.5368989999999999,44943.820224716204
0.5369879999999999,44692.737430157555
0.5370769999999999,44444.44444442741
0.537167,44444.44444442741
0.537257,44198.89502762755
0.537347,43715.84699455147
0.537438,43715.84699455147
0.53753,43715.84699455147
0.5376209999999999,43478.2608695742
0.5377129999999999,43243.24324324541
0.5378049999999999,43243.24324324541
0.5378979999999999,43243.24324324541
0.5379899999999999,43010.75268816754
0.5380829999999999,43243.24324324541
0.5381759999999999,43243.24324324541
0.5382679999999999,43010.75268816754
0.5383609999999999,43010.75268816754
0.5384539999999999,42780.74866309057
0.5385469999999999,42780.74866309057
