Time,Frequency
8.3e-05,46783.62573099416
0.000168,46242.774566473985
0.000254,45714.28571428571
0.000341,45197.74011299435
0.000429,44943.8202247191
0.000518,44444.44444444444
0.000607,43956.04395604396
0.000698,43243.243243243254
0.000789,42328.04232804234
0.000883,41884.81675392673
0.000978,41237.11340206187
0.0010739999999999999,40816.32653061225
0.0011719999999999999,40609.137055837586
0.0012699999999999999,40000.00000000002
0.0013689999999999998,39603.96039603962
0.0014699999999999997,39408.866995073884
0.0015709999999999997,39215.68627450977
0.0016729999999999998,38834.95145631068
0.0017749999999999999,38461.53846153845
0.0018789999999999998,38277.51196172245
0.001983,38095.23809523808
0.002088,37914.69194312792
0.002193,37735.84905660371
0.0022990000000000003,37735.84905660371
0.0024050000000000005,37383.17757009342
0.0025110000000000006,37209.30232558141
0.0026190000000000007,37209.30232558141
0.0027260000000000006,37037.03703703703
0.0028340000000000006,36866.35944700458
0.0029420000000000006,36697.247706421964
0.0030510000000000008,36529.6803652968
0.003160000000000001,36363.63636363641
0.0032700000000000008,36363.63636363641
0.0033800000000000006,36363.63636363641
0.0034900000000000005,36199.09502262446
0.0036000000000000003,36036.03603603604
0.0037110000000000003,35874.43946188346
0.0038220000000000003,35874.43946188346
0.003934,35714.285714285674
0.004045,35555.5555555555
0.004158,35555.5555555555
0.00427,35398.2300884955
0.004383000000000001,35242.29074889858
0.004496000000000001,35242.29074889858
0.004610000000000001,35242.29074889858
0.0047230000000000015,35087.719298245494
0.004837000000000002,34934.49781659388
0.004951000000000002,34782.60869565228
0.005066000000000002,34782.60869565228
0.005181000000000002,34782.60869565228
0.005296000000000001,34782.60869565228
0.005411000000000001,34632.034632034716
0.0055260000000000005,34482.75862068972
0.005642,34482.75862068972
0.005758,34482.75862068972
0.005874,34334.7639484979
0.00599,34334.7639484979
0.006107,34334.7639484979
0.006222999999999999,34042.553191489365
0.006339999999999999,34042.553191489365
0.006457999999999999,34042.553191489365
0.006574999999999999,33898.30508474575
0.006692999999999999,33898.30508474575
0.006810999999999999,33898.30508474575
0.006928999999999999,33755.27426160334
0.0070469999999999994,33755.27426160334
0.007166,33755.27426160334
0.007284,33613.445378151206
0.007403,33613.445378151206
0.007522,33613.445378151206
0.007641,33472.80334728039
0.00776,33472.80334728051
0.00788,33472.80334728039
0.007999,33472.80334728039
0.008119,33472.80334728039
0.008237999999999999,33333.33333333325
0.008357999999999999,33333.33333333325
0.008478,33472.80334728039
0.008598,33472.80334728039
0.008716999999999999,33472.80334728039
0.008837,33472.80334728039
0.008955999999999999,33333.33333333325
0.009075999999999999,33472.80334728039
0.009196,33333.33333333349
0.009314999999999999,33195.02074688798
0.009435999999999998,33057.8512396693
0.009555999999999999,32653.06122448974
0.009677999999999999,32520.325203252072
0.009800999999999999,32388.663967611246
0.009923999999999999,31999.99999999997
0.010048,32258.064516129038
0.010173999999999999,32388.663967611246
0.105406,37558.68544601098
0.105513,37383.17757009486
0.10561899999999999,37037.03703703807
0.10572699999999999,37037.03703703807
0.10583499999999998,36697.2477064227
0.10594299999999998,36529.68036529731
0.10605299999999998,36529.68036529731
0.10616199999999998,36363.636363636695
0.10627199999999998,36199.0950226246
0.10638199999999998,35874.43946188325
0.10649299999999998,35714.2857142854
0.10660499999999998,35874.43946188325
0.10671699999999998,35714.2857142854
0.10682799999999998,35398.23008849495
0.10694099999999998,35398.23008849495
0.10705399999999998,35242.2907488979
0.10716699999999998,35087.719298244694
0.10728099999999999,35087.719298244694
0.10739499999999999,35087.719298244694
0.107509,35087.719298244694
0.107623,34782.60869565097
0.107737,34632.03463203328
0.107853,34632.03463203328
0.10796800000000001,34632.03463203328
0.10808400000000001,34632.03463203328
0.10819900000000002,34334.763948496235
0.10831500000000002,34334.763948496235
0.10843200000000003,34334.763948496235
0.10854800000000003,34188.03418803244
0.10866500000000004,34042.55319148949
0.10878200000000005,34042.55319148949
0.10890000000000004,34042.55319148949
0.10901700000000004,33898.30508474774
0.10913500000000004,33755.2742616052
0.10925300000000003,33755.2742616052
0.10937200000000002,33755.2742616052
0.10949000000000002,33613.44537815292
0.10960900000000001,33613.44537815292
0.109728,33613.44537815292
0.109847,33472.80334728184
0.109966,33333.33333333469
0.11008599999999999,33472.80334728184
0.11020599999999998,33333.33333333469
0.11032499999999998,33195.020746889175
0.11044599999999997,33195.020746889175
0.11056599999999997,33195.020746889175
0.11068699999999997,33195.020746889175
0.11080699999999996,33057.85123967048
0.11092799999999996,33057.85123967048
0.11104899999999995,32921.8106995894
0.11116999999999995,32786.88524590241
0.11129199999999995,32786.88524590241
0.11141399999999994,32786.88524590241
0.11153599999999994,32786.88524590241
0.11165799999999994,32786.88524590241
0.11177999999999993,32786.88524590241
0.11190199999999993,32653.061224490433
0.11202399999999993,32520.32520325253
0.11214699999999993,32520.32520325253
0.11226999999999993,32520.32520325253
0.11239299999999992,32388.6639676117
0.11251599999999992,32388.6639676117
0.11263999999999992,32520.32520325253
0.11276299999999992,32388.6639676117
0.11288599999999992,32388.6639676117
0.11300999999999992,32388.6639676117
0.11313299999999991,32258.064516129263
0.11325699999999991,32128.514056225
0.11338099999999991,32128.514056225
0.11350599999999991,32258.064516129263
0.11362999999999991,32258.064516129263
0.11375399999999991,32128.514056225
0.11387799999999991,31999.99999999997
0.11400299999999991,32128.514056225
0.11412799999999991,32128.514056225
0.11425199999999991,31999.99999999997
0.11437699999999991,31872.50996015921
0.11450199999999991,31872.50996015921
0.11462799999999991,31999.99999999997
0.11475299999999991,31872.50996015921
0.11487799999999991,31872.50996015921
0.11500399999999991,31872.50996015921
0.11512899999999991,31746.031746031465
0.11525499999999991,31746.031746031465
0.11538099999999991,31872.50996015921
0.11550699999999992,31872.50996015921
0.11563199999999992,31746.031746031465
0.11575799999999992,31620.553359683392
0.11588399999999992,31496.062992125462
0.11601099999999992,31620.553359683392
0.11613799999999992,31746.031746031465
0.11626399999999992,31620.553359683392
0.11638999999999992,31620.553359683392
0.11651699999999993,31620.553359683392
0.11664299999999993,31496.062992125462
0.11676999999999993,31496.062992125462
0.11689699999999993,31620.553359683392
0.11702399999999993,31746.031746031465
0.11714999999999993,31496.062992125462
0.11727599999999994,31372.549019607202
0.11740399999999994,31620.553359683392
0.11753099999999994,31746.031746031465
0.11765699999999994,31620.553359683392
0.11778299999999994,31496.062992125462
0.11790999999999995,31620.553359683392
0.11803699999999995,31620.553359683392
0.11816299999999995,31620.553359683392
0.11828999999999995,31746.031746031465
0.11841599999999995,31746.031746031465
0.11854199999999995,31620.553359683392
0.11866799999999995,31999.99999999997
0.11879499999999996,32128.514056225
0.11891799999999995,31999.99999999997
0.11904399999999996,28268.55123674857
0.11916799999999995,23460.410557184205
0.11932699999999996,13536.379018612333
0.21654699999999996,42328.04232803729
0.21664199999999997,42328.04232803729
0.21673599999999998,41884.81675392133
0.216831,41884.81675392133
0.216927,41666.666666661135
0.21702200000000002,41025.64102564087
0.21711900000000003,40609.13705584272
0.21721700000000002,40404.04040404531
0.217316,40404.04040404531
0.217415,40201.00502513028
0.21751399999999999,39800.99502487978
0.21761399999999997,39408.86699507759
0.21771499999999996,39215.68627451327
0.21781699999999996,39215.68627451327
0.21791899999999995,38834.9514563137
0.21802099999999994,38647.342995171886
0.21812499999999993,38647.342995171886
0.21822799999999992,38461.53846154106
0.21833199999999992,38277.51196172487
0.2184359999999999,37914.69194312995
0.2185409999999999,37735.849056605555
0.2186469999999999,37735.849056605555
0.2187529999999999,37558.68544601098
0.2188589999999999,37383.17757009486
0.21896599999999988,37383.17757009486
0.21907299999999988,37209.30232558261
0.21917999999999987,36866.35944700546
0.21928799999999987,36866.35944700546
0.21939699999999987,36866.35944700546
0.21950499999999987,36529.68036529731
0.21961399999999986,36529.68036529731
0.21972399999999986,36529.68036529731
0.21983299999999986,36199.0950226246
0.21994299999999986,36199.0950226246
0.22005399999999986,36199.0950226246
0.22016399999999986,36036.03603603604
0.22027499999999986,35874.43946188325
0.22038599999999986,35714.2857142854
0.22049799999999986,35874.43946188325
0.22060999999999986,35714.2857142854
0.22072099999999986,35555.55555555508
0.22083399999999986,35555.55555555508
0.22094599999999986,35398.23008849495
0.22105899999999987,35398.23008849495
0.22117199999999987,35398.23008849495
0.22128499999999987,35242.2907488979
0.22139799999999987,35087.719298244694
0.22151199999999988,35087.719298244694
0.22162599999999988,35087.719298244694
0.22173999999999988,34934.49781659282
0.22185399999999988,34782.60869565097
0.2219689999999999,34782.60869565097
0.2220839999999999,34782.60869565097
0.2221989999999999,34782.60869565097
0.2223139999999999,34632.03463203328
0.2224289999999999,34482.758620688175
0.2225449999999999,34482.758620688175
0.22266099999999991,34482.758620688175
0.22277699999999992,34334.763948496235
0.22289299999999992,34334.763948496235
0.22300999999999993,34334.763948496235
0.22312599999999994,34188.03418803244
0.22324299999999994,34042.55319148748
0.22335999999999995,34042.55319148748
0.22347799999999995,34188.03418803244
0.22359499999999996,34042.55319148748
0.22371199999999997,33898.305084743755
0.22382999999999997,33898.305084743755
0.22394799999999998,33898.305084743755
0.224066,33898.305084743755
0.224184,33898.305084743755
0.224302,33898.305084743755
0.22442,33755.27426160124
0.22453800000000002,33613.445378149
0.22465700000000002,33755.27426160124
0.22477600000000003,33755.27426160124
0.22489400000000004,33472.80334727796
0.22501300000000005,33472.80334727796
0.22513300000000006,33472.80334727796
0.22525200000000006,33472.80334727796
0.22537200000000007,33472.80334727796
0.22549100000000008,33472.80334727796
0.2256110000000001,33472.80334727796
0.2257300000000001,33333.33333333084
0.2258500000000001,33333.33333333084
0.22597000000000012,33333.33333333084
0.22609000000000012,33472.80334727796
0.22621000000000013,33472.80334727796
0.22632900000000014,33195.020746885355
0.22644900000000015,33195.020746885355
0.22657000000000016,33333.33333333084
0.22669000000000017,33333.33333333084
0.22681000000000018,33333.33333333084
0.2269300000000002,33333.33333333084
0.2270500000000002,33333.33333333084
0.2271700000000002,33195.020746885355
0.22729000000000021,33195.020746885355
0.22741100000000022,33195.020746885355
0.22753100000000023,33333.33333333084
0.22765200000000024,33472.80334727796
0.22777100000000025,33472.80334727796
0.22789100000000026,33333.33333333084
0.22801000000000027,32921.810699585636
0.22813100000000028,32653.061224486733
0.2282530000000003,32653.061224486733
0.2283760000000003,32786.88524589869
0.2284980000000003,28880.866425992834
0.22862000000000032,18264.840182648655
0.2287750000000003,10498.68766404182
0.5593590000000004,36036.03603604505
0.5594700000000004,36036.03603604505
0.5595810000000003,36036.03603604505
0.5596920000000003,35874.43946188772
0.5598030000000003,35714.2857142854
0.5599150000000003,35555.5555555507
0.5600270000000003,35398.230088486256
0.5601400000000003,35398.230088486256
0.5602530000000003,35242.29074890222
0.5603660000000004,34934.49781660552
0.5604800000000003,34934.49781660552
0.5605950000000003,34934.49781660552
0.5607090000000002,34782.608695659364
0.5608240000000002,34782.608695659364
0.5609390000000002,34632.034632037445
0.5610540000000002,34482.758620688175
0.5611700000000002,34482.758620688175
0.5612860000000002,34334.763948492146
0.5614020000000002,34188.03418802433
0.5615190000000002,34188.03418802433
0.5616360000000002,34188.03418802433
0.5617530000000003,34042.553191491505
0.5618700000000003,33898.305084759704
0.5619880000000003,33898.305084759704
0.5621060000000002,33898.305084759704
0.5622240000000002,33898.305084759704
0.5623420000000001,33755.2742616131
0.5624600000000001,33613.445378156845
0.562579,33613.445378156845
0.562698,33613.445378156845
0.562817,33472.80334728184
0.562936,33333.33333333084
0.563056,33472.80334728184
0.563176,33472.80334728184
0.563295,33195.02074688153
0.563415,33195.02074688153
0.563536,33333.33333333084
0.563656,33195.02074688153
0.563776,33057.85123965911
0.5638970000000001,33057.85123965911
0.5640180000000001,33057.85123965911
0.5641390000000002,33057.85123965911
0.5642600000000002,32921.8106995894
0.5643810000000002,32786.8852459136
0.5645030000000002,32786.8852459136
0.5646250000000002,32786.8852459136
0.5647470000000001,32653.061224497833
0.5648690000000001,32653.061224497833
0.564992,32653.061224497833
0.565114,32520.3252032562
0.565237,32520.3252032562
0.56536,32520.3252032562
0.565483,32520.3252032562
0.5656059999999999,32388.6639676117
0.5657289999999999,32258.064516125654
0.5658529999999999,32388.6639676117
0.565977,32388.6639676117
0.5660999999999999,32258.064516125654
0.566224,32128.51405621784
0.566348,31999.999999989315
0.566473,32128.51405621784
0.566598,32128.51405621784
0.5667220000000001,31872.50996015921
0.5668470000000001,31872.50996015921
0.5669730000000001,31872.50996015921
0.5670980000000001,31872.50996015921
0.5672240000000001,31872.50996015921
0.5673490000000001,31746.031746041957
0.5674750000000001,31746.031746041957
0.567601,31620.55335969033
0.567727,31620.55335969033
0.567854,31620.55335969033
0.5679799999999999,31496.062992128904
0.5681069999999999,31496.062992128904
0.5682339999999999,31496.062992128904
0.5683609999999999,31496.062992128904
0.5684879999999999,31496.062992128904
0.5686149999999999,31496.062992128904
0.5687419999999999,31496.062992128904
0.5688689999999998,31496.062992128904
0.5689959999999998,31372.549019607202
0.5691229999999998,31496.062992128904
0.5692509999999998,31620.55335969033
0.5693769999999998,31372.549019607202
0.5695039999999998,31496.062992128904
0.5696319999999998,31496.062992128904
0.5697579999999998,31372.549019607202
0.5698859999999998,31620.55335969033
0.5700129999999998,31620.55335969033
0.5701389999999997,31620.55335969033
0.5702659999999997,31620.55335969033
0.5703919999999997,31620.55335969033
0.5705189999999997,31746.031746041957
0.5706449999999996,31872.50996015921
0.5707709999999996,31746.03174602797
0.5708959999999996,31620.55335969033
0.5710229999999996,31620.55335969033
0.5711489999999996,31249.999999995853
0.5712759999999996,24922.118380061085
0.6733599999999995,8501.59404888444
0.6736979999999995,9227.220299883998
0.6743009999999995,14492.753623188486
0.6745649999999995,18306.63615561019
0.6748529999999995,14414.414414415138
0.6750019999999994,12480.499219968746
0.6754079999999995,19277.10843373758
0.6756429999999994,20779.22077922247
0.6758229999999994,17130.620985010883
0.6760279999999994,12861.736334404908
0.6762899999999994,12176.560121765255
0.6766499999999994,8938.547486033727
0.6769469999999994,8088.978766430594
0.6775449999999994,15655.577299411714
0.6779359999999994,14362.657091561174
0.8841779999999995,27027.02702702027
0.8843689999999995,32921.8106995894
0.8844739999999995,28985.507246382804
0.8846119999999995,31872.50996015921
0.8847499999999995,36036.03603602703
0.8848629999999995,36529.68036528342
0.8849719999999995,35874.43946186986
0.8850819999999996,35087.719298244694
0.8851949999999996,35242.29074890222
0.8853099999999996,35714.2857142854
0.8854219999999996,35555.5555555507
0.8855339999999996,35398.230088486256
0.8856469999999996,35087.719298244694
0.8857599999999997,34934.49781660552
0.8858749999999996,31128.40466926655
0.8859889999999996,31128.40466926655
0.8861319999999996,35242.29074890222
0.8862459999999995,34782.60869564257
0.8863589999999996,34632.034632037445
0.8864759999999996,34632.034632037445
0.8865899999999995,33898.305084743755
0.8867069999999996,33898.305084743755
0.8868259999999996,34482.758620688175
0.8869429999999996,34632.034632037445
0.8870579999999996,34188.03418804055
0.8871739999999996,34042.553191491505
0.8872919999999995,34042.553191491505
0.8874089999999996,33755.2742616131
0.8875269999999995,33898.305084743755
0.8876459999999995,34042.553191491505
0.8877629999999995,33755.2742616131
0.8878809999999995,33472.80334728184
0.8879999999999995,33613.445378156845
0.8881199999999995,33755.2742616131
0.8882379999999994,33898.305084743755
0.8883569999999994,33472.80334728184
0.8884739999999994,33057.85123967427
0.8885959999999994,33613.445378156845
0.8887159999999994,33755.2742616131
0.8888339999999993,33333.33333333084
0.8889529999999993,32786.88524589869
0.8890739999999994,32921.8106995894
0.8891969999999993,33333.33333333084
0.8893169999999994,33472.80334728184
0.8894369999999994,33333.33333333084
0.8895559999999993,33057.85123965911
0.8896769999999994,32921.8106995894
0.8897979999999994,33057.85123967427
0.8899199999999994,33057.85123967427
0.8900399999999994,32653.061224497833
0.8901619999999993,32653.061224497833
0.8902849999999993,32786.8852459136
0.8904069999999993,32921.8106995894
0.8905289999999992,32786.88524589869
0.8906499999999993,32653.061224497833
0.8907729999999993,32520.3252032562
0.8908949999999992,32653.061224483034
0.8910189999999992,32653.061224483034
0.8911399999999993,32520.3252032562
0.8912639999999993,32520.3252032562
0.8913859999999992,32258.064516125654
0.8915099999999992,32520.3252032562
0.8916339999999993,32653.061224497833
0.8917559999999992,32128.51405623216
0.8918789999999992,28070.17543859849
0.8920049999999992,28469.750889682175
0.8921639999999992,32653.061224497833
0.8922859999999991,28469.750889682175
0.8924089999999991,25396.82539682909
0.8925669999999991,25641.02564102737
0.8927239999999991,28776.97841726614
0.8928789999999991,32128.51405623216
0.8930019999999991,32000.000000003525
0.893127999999999,32000.000000003525
0.893251999999999,31872.50996015921
0.893377999999999,31872.50996015921
0.893502999999999,28268.551236756888
0.893628999999999,28776.97841726614
0.893785999999999,32128.51405621784
0.893906999999999,31249.999999995853
0.894034999999999,28268.5512367458
0.894162999999999,27874.5644599267
0.8943179999999991,32128.51405621784
0.8944499999999991,26143.79084967077
0.8945669999999991,23188.405797098778
0.8947559999999991,21505.37634408377
0.8949119999999992,11080.332409972292
1.0025829999999991,29304.02930403277
1.002718999999999,34934.49781658859
1.002855999999999,43010.75268816754
1.002947999999999,42553.19148934427
1.003041999999999,42328.042328043506
1.0031359999999991,41884.81675391525
1.003230999999999,41884.81675391525
1.0033269999999992,41450.77720209666
1.0034219999999991,41025.64102565255
1.003519999999999,40816.326530594546
1.003616999999999,40609.137055837
1.0037159999999992,40609.137055837
1.003813999999999,40201.00502511346
1.0039129999999992,40000.0000000044
1.0040129999999992,39800.99502489627
1.0041129999999991,39408.86699508297
1.004213999999999,39215.68627449193
1.004315999999999,39024.390243900394
1.0044179999999991,38834.95145632417
1.004520999999999,38834.95145632417
1.004623999999999,38834.95145632417
1.004726999999999,38277.51196174012
1.004829999999999,37914.69194313493
1.004935999999999,38095.238095230205
1.005040999999999,37735.849056585794
1.005145999999999,37383.17757006577
1.005252999999999,37558.685446006086
1.0053599999999991,37558.685446006086
1.005465999999999,37209.3023255682
1.0055729999999992,37209.3023255682
1.0056809999999992,37209.3023255682
1.0057879999999992,36866.35944701961
