Time,Frequency
6.5e-05,59259.25925925925
0.000132,58394.16058394159
0.0002,57553.95683453238
0.00026900000000000003,56338.02816901409
0.000339,55555.55555555554
0.000411,55172.41379310343
0.00048300000000000003,54421.768707482996
0.0005560000000000001,53691.27516778526
0.00063,52980.13245033113
0.000705,52287.581699346396
0.000781,51612.90322580646
0.000858,50955.414012738845
0.000936,50632.91139240501
0.001015,50314.46540880501
0.0010940000000000001,50000.00000000001
0.0011740000000000001,49689.44099378885
0.0012540000000000001,49079.75460122701
0.001335,48780.48780487802
0.001417,48484.84848484849
0.0014990000000000001,47904.19161676645
0.001582,47904.19161676645
0.0016660000000000002,47619.04761904763
0.0017490000000000001,47058.82352941176
0.0018340000000000001,46783.625730994114
0.0019190000000000001,46242.77456647399
0.0020050000000000003,45977.01149425296
0.002092,45977.01149425296
0.002179,45714.28571428576
0.002266,45454.54545454547
0.0023539999999999998,45197.74011299433
0.0024419999999999997,44943.82022471905
0.002531,44943.82022471905
0.00262,44943.82022471905
0.002709,44692.737430167625
0.002798,44444.44444444454
0.002888,44444.44444444454
0.0029779999999999997,44198.89502762437
0.0030679999999999995,43956.043956043985
0.0031589999999999995,43715.84699453552
0.0032499999999999994,43715.84699453552
0.0033419999999999995,43715.84699453552
0.0034329999999999994,43243.24324324318
0.0035249999999999995,43243.24324324318
0.0036179999999999997,43478.26086956519
0.0037099999999999998,43243.24324324318
0.003802,43010.75268817195
0.003895,43010.75268817195
0.003988,42780.74866310148
0.004081,42553.191489361554
0.004175000000000001,43010.75268817195
0.004269000000000001,42780.74866310168
0.004361000000000001,42553.19148936175
0.004456000000000001,42780.74866310148
0.004549000000000001,42328.04232804234
0.004643000000000001,42553.19148936175
0.004738000000000001,42553.19148936175
0.004831000000000001,41884.81675392685
0.004926000000000001,42553.19148936175
0.005022,37914.69194312792
0.0051140000000000005,33898.30508474575
0.005233000000000001,19753.086419753086
0.005350000000000001,9163.802978235963
0.010138999999999999,8752.7352297593
0.010668999999999998,9248.554913294785
0.011052999999999999,9195.402298850564
0.080499,66666.66666666168
0.080559,66115.70247933338
0.08061900000000001,64516.12903225853
0.08068000000000002,63492.06349206992
0.08074300000000001,62992.12598425781
0.080806,61538.461538465686
0.08087,60606.060606063715
0.080936,59701.49253731556
0.08100199999999999,58823.5294117659
0.08106999999999999,58394.16058394236
0.08113799999999999,57553.95683453228
0.08120699999999999,56737.58865248137
0.08127699999999999,55944.055944054286
0.08134799999999999,55172.41379310108
0.08141999999999999,54794.52054794249
0.081493,54054.054054050684
0.081566,53333.33333332934
0.081641,52631.578947368645
0.08171600000000001,51612.90322581029
0.081793,51282.05128205474
0.081871,50955.414012741945
0.081949,50955.414012741945
0.08202799999999999,50632.91139240779
0.08210599999999998,50000.00000000204
0.08218599999999998,50000.00000000204
0.08226599999999998,49689.44099379052
0.08234599999999997,49079.75460122805
0.08242699999999997,48780.4878048788
0.08250899999999997,48484.84848484893
0.08259099999999997,48192.7710843375
0.08267399999999997,48192.7710843375
0.08275699999999997,47619.047619047196
0.08283999999999997,47337.27810650818
0.08292499999999997,47337.27810650818
0.08300899999999997,47058.8235294108
0.08309399999999997,46511.62790697526
0.08317899999999998,46242.77456647225
0.08326599999999998,46242.77456647225
0.08335199999999998,45977.011494250895
0.08343899999999999,45714.2857142835
0.08352599999999999,45454.545454543004
0.083614,45454.545454543004
0.083702,45197.740112991676
0.08379,44943.820224716204
0.08387900000000001,44692.73743016448
0.08396800000000001,44444.44444444111
0.08405800000000002,44444.44444444111
0.08414800000000003,44198.89502762416
0.08423800000000004,43956.04395604692
0.08432900000000003,43715.84699453821
0.08442000000000002,43715.84699453821
0.08451200000000002,43715.84699453821
0.08460300000000001,43478.260869567646
0.084695,43478.260869567646
0.084787,43243.24324324541
0.084879,43010.752688173954
0.08497199999999999,43010.752688173954
0.08506499999999999,43010.752688173954
0.08515799999999998,42780.748663103266
0.08525099999999998,42780.748663103266
0.08534499999999998,42553.19148936312
0.08543799999999997,42553.19148936312
0.08553299999999997,42780.748663103266
0.08562599999999997,42328.042328043506
0.08571999999999996,42328.042328043506
0.08581499999999996,42328.042328043506
0.08590899999999996,41666.66666666716
0.08600399999999996,41237.113402061914
0.08610099999999996,41666.66666666716
0.08619799999999996,41884.81675392742
0.08629299999999995,41884.81675392742
0.08638899999999995,41884.81675392742
0.08648399999999995,41666.66666666716
0.08657999999999995,41666.66666666716
0.08667599999999995,41450.777202072815
0.08677199999999995,41450.777202072815
0.08686899999999995,41450.777202072815
0.08696499999999995,40816.326530611885
0.08706199999999994,41666.66666666716
0.08716099999999995,41025.64102564087
0.08725399999999994,41450.777202072815
0.08735599999999995,37735.849056605555
0.08744699999999994,30188.679245282867
0.08756799999999994,20565.552699228767
0.08771199999999994,18475.75057736768
0.08795699999999994,20725.388601036408
0.08814499999999993,18604.651162790706
0.08834299999999994,10416.66666666679
0.08981699999999992,9302.325581395353
0.09035499999999992,17167.38197424863
0.09067699999999992,34782.60869565097
0.09082099999999993,17505.470459518634
0.09090699999999993,16528.92561983477
0.09127799999999993,16563.1469979297
0.09139099999999993,15444.015444015722
0.09176099999999993,21680.216802168354
0.09190899999999992,25806.451612902834
0.09212999999999992,17817.371937639
0.09221899999999993,17817.371937639
0.09257899999999993,29520.29520295123
0.09266799999999993,14035.087719298219
0.09284999999999993,15238.095238095306
0.09323799999999993,27586.20689655186
0.09337499999999993,18099.5475113123
0.09352799999999993,12598.42519685046
0.09381699999999993,15503.875968992172
0.09416299999999993,30075.187969924547
0.09433299999999993,42328.042328043506
0.09442899999999993,19464.720194647452
0.09452199999999993,15122.873345935679
0.09483999999999992,13675.213675213625
0.09505099999999993,17094.017094017232
0.09542499999999993,27586.20689655186
0.09551899999999992,22160.664819944584
0.09571499999999993,27972.0279720285
0.09587999999999992,30534.35114503836
0.09600099999999992,18433.17972350214
0.09614199999999992,13840.830449827105
0.09643499999999992,16806.72268907597
0.09671999999999992,17391.304347826008
0.09691099999999991,8810.57268722461
0.09717999999999992,8492.569002123157
0.09781899999999992,13864.818024263572
0.09812199999999992,12307.692307692349
0.09839599999999991,14652.014652014523
0.09877199999999992,13445.378151260542
0.09894199999999992,8008.008008008009
0.09936699999999991,9456.264775413716
0.10437699999999993,12658.227848101114
0.23886299999999996,12820.512820513115
0.23935799999999996,41025.64102564087
0.23948699999999995,59701.49253730319
0.23955299999999996,58394.16058393053
0.23962099999999997,57553.95683453228
0.23969,57142.857142867964
0.23975999999999997,55944.05594406515
0.23982999999999996,54421.76870749022
0.23990299999999995,54421.76870749022
0.23997699999999994,54054.05405406082
0.24004999999999993,52980.13245033657
0.24012499999999992,51948.05194805617
0.24020099999999991,51282.05128205474
0.2402789999999999,51282.05128205474
0.2403569999999999,50632.91139240779
0.2404349999999999,50000.00000000204
0.2405149999999999,49689.44099379052
0.2405949999999999,49689.44099379052
0.2406759999999999,49079.75460122805
0.2407559999999999,48192.7710843375
0.2408389999999999,47337.27810650818
0.2409219999999999,47058.8235294108
0.2410079999999999,47619.047619047196
0.2410919999999999,47058.8235294108
0.2411759999999999,46511.62790697526
0.2412619999999999,46511.62790697526
0.2413479999999999,46242.77456647225
0.2414339999999999,45977.011494250895
0.2415209999999999,45714.2857142835
0.2416079999999999,45454.545454543004
0.2416959999999999,45454.545454543004
0.24178399999999992,45197.740112991676
0.24187199999999992,44692.73743016448
0.24196099999999993,44692.73743016448
0.24205099999999993,44692.73743016448
0.24213999999999994,44198.895027620776
0.24222999999999995,44198.895027620776
0.24232099999999995,43715.84699453158
0.24241099999999996,43478.26086956108
0.24250399999999997,43715.84699453158
0.24259499999999998,43478.26086956108
0.24268699999999999,43243.243243238925
0.242779,42780.74866309692
0.242872,42553.19148935684
0.24296600000000002,42780.74866309692
0.24306000000000003,42780.74866309692
0.24315300000000004,42553.19148935684
0.24324700000000005,42553.19148935684
0.24334100000000006,42328.04232803729
0.24343500000000007,42328.04232803729
0.24353000000000008,42328.04232803729
0.2436240000000001,42328.04232803729
0.2437190000000001,42105.26315788953
0.2438130000000001,41666.666666661135
0.24390900000000013,41666.666666661135
0.24400500000000014,41884.81675392133
0.24410100000000015,41666.666666661135
0.24419600000000016,41237.11340205601
0.24429300000000018,41666.666666661135
0.2443900000000002,41666.666666661135
0.2444850000000002,41237.11340205601
0.24458200000000022,41237.11340205601
0.24467900000000023,41025.64102564087
0.24477600000000024,41237.113402061914
0.24487400000000023,41237.113402061914
0.24497000000000024,40816.32653061766
0.24506800000000023,40816.32653061766
0.24516600000000022,41025.64102564087
0.2452640000000002,40816.326530611885
0.24536100000000022,40816.326530611885
0.2454600000000002,40816.326530611885
0.24555700000000022,40404.04040404531
0.2456560000000002,40609.13705584272
0.2457550000000002,40609.13705584272
0.24585300000000018,40404.04040404531
0.24595200000000017,40201.00502513028
0.24605100000000016,40404.04040404531
0.24615100000000015,40404.04040404531
0.24624900000000013,40000.0000000044
0.24634900000000012,40000.0000000044
0.2464490000000001,40201.00502513028
0.2465490000000001,40201.00502513028
0.2466480000000001,40000.0000000044
0.24674800000000008,40201.00502513028
0.24684800000000007,40201.00502513028
0.24694700000000006,40201.00502513028
0.24704700000000004,35714.28571428982
0.24714600000000003,26490.06622516585
0.24727100000000002,23188.405797100644
0.24744800000000003,21680.21680216754
0.24761600000000003,13201.320132013301
0.24781700000000004,9987.515605493181
0.33943199999999996,8676.789587852698
0.34027299999999994,48192.7710843375
0.34035399999999993,55944.055944054286
0.34043899999999994,67226.89075631369
0.34049699999999994,67796.61016951941
0.3405579999999999,66666.66666669252
0.3406149999999999,64000.00000000705
0.34067799999999987,63492.06349205594
0.3407399999999999,62015.503875973685
0.3408039999999999,61068.70229007996
0.34086899999999987,59701.49253730319
0.3409349999999999,58394.16058394236
0.3410029999999999,57971.01449276561
0.3410719999999999,57553.95683453228
0.34114099999999986,56737.58865248137
0.3412109999999999,55944.055944054286
0.34128199999999986,55172.41379310108
0.3413539999999999,54421.76870747995
0.34142699999999987,53691.27516778155
0.3415009999999999,53333.33333333921
0.3415759999999999,52631.57894737345
0.34165099999999987,51948.05194805617
0.34172799999999987,51612.90322580105
0.34180499999999986,50955.41401273294
0.3418829999999999,50314.46540879863
0.3419619999999999,49689.44099378196
0.3420419999999999,49382.71604938409
0.3421229999999999,49079.7546012197
0.3422039999999999,48780.487804862285
0.3422859999999999,48484.848484840775
0.34236799999999995,47904.19161677429
0.34245099999999995,47619.047619062934
0.3425349999999999,47619.047619062934
0.3426189999999999,47058.82352942617
0.34270299999999987,46511.627906990274
0.34278899999999984,46511.627906990274
0.3428749999999998,46242.774566479675
0.3429609999999998,45714.28571429075
0.3430479999999998,45714.28571429075
0.3431359999999998,45454.545454543004
0.3432229999999998,45197.74011299876
0.3433119999999998,45197.74011299876
0.34339999999999976,44692.73743017141
0.34348899999999977,44692.73743017141
0.34357899999999975,44692.73743017141
0.34366799999999975,44198.89502762755
0.34375799999999973,44198.89502762755
0.34384899999999974,44198.89502762755
0.3439389999999997,43715.84699453821
0.3440299999999997,43715.84699453821
0.3441219999999997,43715.84699453821
0.3442129999999997,43478.2608695742
0.3443049999999997,43243.24324324541
0.3443969999999997,43010.75268816754
0.3444899999999997,43010.75268816754
0.3445829999999997,43010.75268816754
0.3446759999999997,43010.75268816754
0.3447689999999997,42780.748663103266
0.3448619999999997,42553.191489369405
0.3449559999999997,42553.191489369405
0.3450499999999997,42553.191489369405
0.3451439999999997,42553.191489369405
0.34523799999999966,42328.042328043506
0.34533199999999964,42105.26315788953
0.34542699999999965,42105.26315788953
0.34552199999999966,42105.26315788953
0.3456169999999997,41884.81675392742
0.3457119999999997,41884.81675392742
0.34580799999999967,42105.26315788953
0.3459029999999997,41884.81675392742
0.3459979999999997,41666.66666667318
0.3460939999999997,41450.777202072815
0.34618999999999966,41450.777202072815
0.3462869999999997,41666.66666667318
0.34638299999999966,41237.113402067815
0.34647899999999965,40816.32653061766
0.34657699999999964,40404.04040404531
0.3466749999999996,40000.0000000044
0.3467749999999996,40000.0000000044
0.3468749999999996,40201.00502512467
0.3469749999999996,15779.09270216853
0.3507469999999996,11730.205278592102
0.3510429999999996,11816.83899556898
0.3514289999999996,13722.126929674096
0.3517199999999996,18181.818181818348
0.3520119999999996,24169.184290032386
0.3521599999999996,15037.593984963058
0.3523429999999996,10796.221322537234
0.35269199999999956,9913.258983890928
0.35308399999999956,8273.009307135508
0.35349899999999956,9153.318077803351
0.35533499999999957,10610.079575597141
0.35562799999999956,8008.008008008232
0.35608899999999954,10362.694300518204
0.3566269999999995,12102.874432677345
0.35686099999999954,9962.640099626424
0.35728799999999955,12012.012012012014
0.35766399999999954,8820.286659316514
0.36046299999999953,8483.563096500286
0.36103299999999955,10012.515644555768
0.37581099999999945,8602.150537634534
0.37629699999999944,10282.776349614383
0.5773129999999992,8429.926238145616
0.5778449999999992,10738.255033557109
0.5878829999999992,8465.608465608702
0.5884989999999991,10695.187165775817
0.6144899999999993,27397.260273966036
0.6146719999999993,45197.74011297041
0.6147819999999994,59701.49253727846
0.6148489999999994,59701.49253727846
0.6149159999999995,57971.01449271897
0.6149829999999995,55944.055944054286
0.6150539999999995,55555.55555558566
0.6151259999999995,55172.4137931222
0.6151979999999995,54421.76870747995
0.6152709999999995,53691.275167761545
0.6153449999999995,52631.578947354225
0.6154199999999995,51612.90322580105
0.6154969999999995,51282.05128203649
0.6155749999999995,50955.414012714915
0.6156529999999996,50314.46540879863
0.6157319999999996,50000.00000001938
0.6158119999999996,49689.440993799086
0.6158919999999996,48780.487804862285
0.6159729999999995,48484.84848482446
0.6160559999999996,48192.7710843375
0.6161379999999996,47619.047619062934
0.6162219999999996,47337.27810651596
0.6163059999999996,47058.8235294108
0.6163909999999996,46511.627906990274
0.6164759999999996,46242.774566479675
0.6165629999999995,45977.011494250895
0.6166489999999996,45454.545454557345
0.6167369999999995,45454.545454557345
0.6168249999999995,45197.74011299876
0.6169129999999995,44692.737430157555
0.6170019999999995,44198.89502762755
0.6170919999999995,44692.73743018527
0.6171829999999995,39800.99502487429
0.6172709999999995,35555.5555555507
0.6173839999999995,39800.99502487429
0.6174959999999995,43956.043956040216
0.6175849999999995,43243.24324324541
0.6176779999999995,43243.24324324541
0.6177699999999995,42553.191489369405
0.6178629999999995,42553.191489369405
0.6179579999999995,42553.191489369405
0.6180509999999995,42105.26315791414
0.6181459999999994,42105.26315791414
0.6182409999999994,41884.816753939594
0.6183359999999993,41884.816753939594
0.6184319999999993,41666.66666667318
0.6185269999999993,41237.11340205601
0.6186239999999993,41237.11340205601
0.6187209999999993,41237.11340205601
0.6188179999999993,41237.11340205601
0.6189149999999993,40816.32653061766
0.6190119999999993,40609.137055837
0.6191109999999993,40816.326530594546
0.6192089999999993,40609.137055837
0.6193069999999994,40609.137055837
0.6194059999999993,40404.04040403398
0.6195039999999994,40201.005025135884
0.6196039999999994,40201.005025135884
0.6197029999999993,40000.0000000044
0.6198029999999993,40000.0000000044
0.6199029999999993,40000.0000000044
0.6200029999999993,40000.0000000044
0.6201029999999993,40000.0000000044
0.6202029999999993,39800.99502487429
0.6203029999999993,39603.96039603265
0.6204039999999993,39800.99502487429
0.6205049999999993,39800.99502487429
0.6206049999999993,39603.96039603265
0.6207059999999993,39603.96039603265
0.6208069999999993,39408.86699506142
0.6209079999999993,39603.96039603265
0.6210099999999994,39800.99502487429
0.6211099999999994,39408.86699506142
0.6212109999999994,39408.86699506142
0.6213129999999994,39215.68627451327
0.6214139999999995,39215.68627451327
0.6215169999999994,39408.86699506142
0.6216179999999994,39024.390243900394
0.6217199999999995,39024.390243900394
0.6218229999999995,34482.758620688175
0.6219249999999995,18912.529550829604
0.6244869999999995,30188.679245287607
0.6246559999999994,25641.02564102737
0.6247519999999994,13377.926421404964
0.6249679999999994,11782.032400589358
0.6253499999999994,17204.301075271123
0.6256469999999994,22598.87005649938
0.6258149999999993,26315.789473686724
0.6260009999999994,33333.33333334626
0.6261189999999993,18912.529550829604
0.6262409999999993,13513.513513512671
0.6265419999999993,20833.333333330567
0.6268329999999993,21220.159151195847
0.6269259999999993,17699.115044251823
0.6272099999999993,21621.621621622704
0.6273779999999992,23188.405797098778
0.6275799999999992,16563.146997929223
0.6277229999999993,12121.212121212233
0.6280629999999993,10443.86422976592
0.6283829999999992,15180.265654650564
0.6288289999999992,45977.011494250895
0.6289099999999992,24844.72049689098
0.6290029999999992,22662.889518410535
0.6292319999999992,28268.5512367458
0.6293559999999992,28985.507246371144
0.6295149999999993,38647.342995156345
0.6296319999999993,38647.342995156345
0.6297219999999993,26666.666666659734
0.6298389999999994,16260.162601624432
0.6300219999999994,16771.488469603446
0.6303309999999994,24024.024024030034
0.6304989999999994,16096.579476862149
0.6306639999999993,12480.499219968746
0.6309959999999993,19704.433497536098
0.6313049999999993,32000.000000003525
0.6314019999999994,24464.831804283873
0.6315549999999993,20050.12531328129
0.6317289999999993,12841.091492776057
0.6319539999999993,9227.220299883998
0.6323519999999994,10695.18716577423
0.6328209999999994,18867.924528302778
0.6330999999999994,33333.33333334626
0.6332449999999994,29520.29520296181
0.6333399999999993,15180.265654650564
0.6335159999999993,13864.818024264905
0.6338669999999993,11267.605633803001
0.6340929999999992,12759.170653906596
0.6345769999999993,25236.593059935974
0.6347199999999993,24767.801857588038
0.6348939999999993,16632.016632018232
0.6350429999999992,9603.841536614962
0.6358759999999992,9962.640099626424
0.6364549999999992,15533.980582522969
0.6366789999999992,12944.983818770072
0.6369699999999993,13050.570962480148
0.6372969999999992,15122.873345935679
0.6375829999999992,11747.430249632156
0.6378259999999992,8791.208791208044
0.6400919999999993,9864.36498150424
0.6671879999999992,8412.197686645326
0.6953579999999994,8492.569002123157
0.6959359999999993,12558.869701726871
0.6962999999999994,9389.671361502746
0.6965729999999993,11347.517730497168
0.6971519999999993,37558.685446025665
0.6972779999999993,37383.177570104555
0.6973649999999992,36529.68036530194
0.6974919999999992,43478.2608695742
