Time,Frequency
7.2e-05,53691.275167785236
0.000146,52980.13245033112
0.000221,52287.58169934641
0.000297,51612.90322580646
0.000374,50955.414012738845
0.000452,50632.91139240507
0.000531,50000.00000000001
0.00061,49382.7160493827
0.000691,48780.48780487806
0.000772,47904.19161676648
0.000855,47619.0476190476
0.000939,47058.82352941176
0.001023,46242.77456647399
0.001109,45977.011494252845
0.001196,45714.28571428571
0.001283,45454.54545454547
0.001371,44943.8202247191
0.001459,44692.737430167566
0.001549,44692.737430167566
0.0016380000000000001,44198.89502762432
0.0017280000000000002,43956.043956043985
0.001819,43715.84699453557
0.00191,43478.26086956524
0.002002,43243.24324324318
0.002094,43010.75268817195
0.002187,42780.74866310158
0.0022800000000000003,42328.04232804234
0.0023740000000000002,42105.263157894726
0.0024690000000000003,42105.263157894726
0.0025640000000000003,41884.81675392666
0.0026590000000000003,41666.66666666659
0.0027550000000000005,41450.77720207253
0.0028510000000000007,41237.113402061914
0.0029480000000000005,41025.64102564105
0.0030450000000000004,40816.32653061225
0.0031430000000000004,40816.32653061225
0.0032410000000000004,40609.137055837535
0.0033390000000000004,40404.04040404035
0.0034380000000000005,40404.04040404035
0.0035370000000000006,40404.04040404035
0.0036360000000000008,40201.00502512564
0.003735000000000001,39999.999999999985
0.0038350000000000007,39800.99502487549
0.003935000000000001,39603.96039603945
0.004036000000000001,39603.96039603945
0.004137000000000002,39603.96039603945
0.004238000000000002,39603.96039603945
0.004339000000000003,39408.866995073884
0.004440000000000003,39215.686274509935
0.004542000000000003,39215.686274509935
0.004644000000000002,39024.39024390254
0.004746000000000002,39024.39024390254
0.004849000000000002,39024.39024390254
0.004951000000000001,38834.95145631076
0.005054000000000001,38834.95145631076
0.005157000000000001,38834.95145631076
0.005260000000000001,38834.95145631076
0.005363000000000001,38647.342995169136
0.005466,38461.53846153849
0.00557,38461.53846153849
0.005674,38277.51196172249
0.005778,38277.51196172249
0.005883,38461.53846153849
0.005987,38277.51196172249
0.006091,38095.23809523808
0.006196,38095.23809523808
0.006301,38095.23809523808
0.006406,37914.69194312792
0.006511,37914.69194312792
0.0066170000000000005,37914.69194312792
0.0067220000000000005,37735.84905660371
0.006828000000000001,37735.84905660371
0.006934000000000001,37558.6854460093
0.007040000000000001,37558.6854460093
0.0071470000000000014,37558.6854460093
0.007253000000000002,37558.6854460093
0.007360000000000002,37558.6854460093
0.007466000000000002,37383.17757009334
0.0075730000000000025,37558.6854460093
0.007680000000000003,37558.685446009455
0.007786000000000003,37383.17757009365
0.007893000000000002,37383.17757009365
0.008000000000000002,37383.17757009365
0.008107000000000001,37558.685446009455
0.008214,37558.685446009455
0.008320000000000001,37383.17757009365
0.008427,37558.685446009455
0.008534,37735.84905660371
0.00864,37914.69194312808
0.008746,37914.69194312808
0.008851,37735.84905660371
0.008957,37735.84905660371
0.009063,26845.637583892647
0.009169,13245.03311258281
0.014290999999999998,8412.197686645632
0.014902999999999998,17857.142857142837
0.015241999999999999,40816.32653061225
0.015350999999999998,45714.28571428576
0.015437999999999999,44692.737430167515
0.015525999999999998,44198.89502762416
0.015616999999999999,43956.04395604441
0.015707,43478.260869566
0.015798999999999997,43243.243243243785
0.015890999999999995,42780.74866310168
0.015983999999999995,42105.263157894915
0.016077999999999995,41884.81675392666
0.016173999999999994,41666.66666666641
0.016268999999999995,41025.64102564087
0.016365999999999995,40816.326530611885
0.016463999999999996,40816.326530611885
0.016561999999999997,40201.00502512537
0.016659999999999998,39603.96039603945
0.016760999999999998,39408.86699507354
0.016862,39215.686274509266
0.016964,39024.39024390238
0.017066,38647.342995169296
0.017169,38095.23809523839
0.017273,37914.69194312808
0.017379,37735.84905660371
0.017484,37209.30232558141
0.017591,36697.24770642211
0.017699,35874.43946188381
0.017809,35555.555555555635
0.017921999999999997,36199.09502262403
0.018033999999999998,36036.03603603604
0.018143,35398.23008849604
0.018255999999999998,35398.23008849604
0.018368999999999996,35087.719298245764
0.018481999999999995,34934.49781659388
0.018596999999999995,34632.03463203485
0.018710999999999995,34334.76394849777
0.018827999999999994,34188.03418803396
0.018943999999999996,34042.55319148949
0.019061999999999996,33898.30508474575
0.019178999999999995,33472.80334728039
0.019297999999999996,33195.02074688822
0.019417999999999994,33057.85123966954
0.019538999999999994,33057.85123966954
0.019659999999999993,32786.88524590148
0.019780999999999993,32520.325203251614
0.019903999999999995,32520.325203251614
0.020026999999999996,32388.663967611246
0.020149999999999998,32128.514056225
0.020273999999999997,31872.50996015921
0.020398999999999997,31620.553359683825
0.020524999999999998,31372.549019608054
0.020651999999999997,31128.404669260664
0.020779999999999996,30888.030888030615
0.020908999999999997,30769.23076923038
0.021039,30534.351145037956
0.021169,30188.679245282867
0.021301,30188.679245282867
0.021434,30188.679245282867
0.021566000000000002,30075.187969924547
0.021699000000000003,30188.679245282867
0.021832000000000004,30303.030303030264
0.021964000000000004,30418.25095057042
0.022096000000000005,30418.25095057042
0.022227000000000004,30418.25095057042
0.022359000000000004,30418.25095057042
0.022490000000000003,30303.030303030264
0.022622000000000003,30188.679245282867
0.022754000000000003,30534.351145037956
0.022887000000000005,30534.351145037956
0.023016000000000005,29520.295202951984
0.023149000000000006,29411.764705882575
0.023287000000000006,20671.83462532308
0.029975000000000005,30534.351145037956
0.030135000000000006,16666.666666666624
0.14130199999999998,57553.95683453228
0.141364,56338.0281690128
0.14144099999999998,62015.50387596034
0.141506,61068.70229006702
0.14157,59701.49253730319
0.141637,25236.593059935974
0.14170400000000002,16293.279022403543
0.14195400000000002,25559.105431311542
0.14219500000000002,54421.76870749022
0.142267,52980.13245033657
0.142342,52287.58169935102
0.142418,51948.05194805617
0.14249499999999998,51612.90322581029
0.14257199999999998,50955.414012741945
0.14264999999999997,50000.00000000204
0.14272899999999997,48780.4878048788
0.14280999999999996,48192.7710843375
0.14289299999999996,47904.19161676633
0.14297599999999996,47337.27810650818
0.14305999999999996,47337.27810650818
0.14314499999999997,47058.8235294108
0.14322899999999997,46511.62790697526
0.14331499999999997,46242.77456647225
0.14340099999999997,45714.2857142835
0.14348799999999998,45197.740112991676
0.14357599999999998,44692.73743016448
0.143665,44198.895027620776
0.143755,43715.84699453158
0.143846,43478.26086956108
0.143938,43243.243243238925
0.14403000000000002,42780.74866309692
0.14412300000000003,42553.19148935684
0.14421700000000004,42328.04232803729
0.14431100000000005,41666.666666661135
0.14440600000000006,41237.11340205601
0.14450300000000008,41025.64102564087
0.1446000000000001,40609.13705584272
0.14469800000000008,40201.00502513028
0.14479700000000006,39800.99502487978
0.14489700000000005,39408.86699507759
0.14499800000000004,39215.68627451327
0.14510000000000003,39024.390243905684
0.14520200000000003,38647.342995171886
0.14530500000000002,38095.238095240275
0.145409,37914.69194312995
0.145515,37914.69194312995
0.14562,37558.68544601098
0.145726,37209.30232558261
0.145833,36866.35944700546
0.145941,36529.68036529731
0.14604999999999999,36363.636363636695
0.14615999999999998,36199.0950226246
0.14626999999999998,35874.43946188325
0.14638099999999998,35555.55555555508
0.14649299999999998,35242.2907488979
0.146606,35087.719298244694
0.14672,34934.49781659282
0.146834,34632.03463203328
0.146949,34334.763948496235
0.147065,34042.55319148748
0.147182,33898.305084743755
0.14730000000000001,33898.305084743755
0.14741800000000002,33755.27426160124
0.14753600000000003,33333.33333333084
0.14765500000000004,33057.85123966669
0.14777600000000005,32786.88524589869
0.14789700000000006,32520.325203248864
0.14802000000000007,32388.66396760806
0.14814300000000008,32258.064516125654
0.1482670000000001,32258.064516125654
0.1483910000000001,31999.99999999997
0.14851500000000012,31620.55335968686
0.1486410000000001,31496.062992128904
0.1487680000000001,31372.549019610615
0.14889500000000008,31007.751937986843
0.14902300000000007,30651.340996170526
0.14915300000000006,30534.35114503998
0.14928400000000006,30418.250950572023
0.14941500000000005,30418.250950572023
0.14954700000000004,30651.340996170526
0.14967800000000003,30651.340996170526
0.14980800000000002,30534.35114503998
0.14993900000000002,30418.250950572023
0.15007,30418.250950572023
0.150202,30418.250950572023
0.150333,30418.250950572023
0.150465,30534.35114503998
0.15059599999999998,30651.340996170526
0.15072699999999997,30534.35114503998
0.15085699999999996,30188.679245284446
0.15098899999999996,29739.776951673804
0.15112199999999995,26229.508196721337
0.15125799999999995,17021.276595744745
0.21367199999999995,60150.37593983968
0.21373699999999995,58394.16058393053
0.21380499999999997,57553.95683453228
0.21387399999999998,56338.02816902381
0.21394399999999997,55555.55555556424
0.21401599999999996,54794.52054795291
0.21408799999999995,53691.27516779155
0.21416199999999994,53333.33333333921
0.21423699999999993,52631.57894737345
0.21431199999999992,51612.90322581029
0.2143889999999999,50955.414012741945
0.2144669999999999,50314.46540880741
0.2145459999999999,49689.44099379052
0.2146259999999999,48780.4878048788
0.2147069999999999,48192.7710843375
0.2147899999999999,47904.19161676633
0.2148729999999999,47337.27810650818
0.2149569999999999,47058.8235294108
0.2150419999999999,46511.62790697526
0.2151269999999999,45977.011494250895
0.2152139999999999,45714.2857142835
0.2153009999999999,45197.740112991676
0.2153889999999999,44943.820224716204
0.21547799999999992,44692.73743016448
0.21556699999999993,44198.895027620776
0.21565699999999993,43956.043956040216
0.21574799999999994,43956.043956040216
0.21583899999999995,43715.84699453158
0.21592999999999996,43243.243243238925
0.21602199999999996,42780.74866309692
0.21611499999999997,42553.19148935684
0.21620899999999998,42328.04232803729
0.216303,42105.26315788953
0.216398,41884.81675392133
0.21649300000000002,41450.77720206685
0.21658900000000003,41237.11340205601
0.21668600000000005,41237.11340205601
0.21678300000000006,41025.64102564087
0.21688000000000007,40816.32653061766
0.21697800000000006,40609.13705584272
0.21707600000000005,40404.04040404531
0.21717500000000003,40404.04040404531
0.21727400000000002,40201.00502513028
0.217373,40000.0000000044
0.217473,40000.0000000044
0.217573,39800.99502487978
0.21767299999999998,39800.99502487978
0.21777399999999997,39603.96039604353
0.21787399999999996,39215.68627451327
0.21797599999999995,39215.68627451327
0.21807799999999994,39215.68627451327
0.21817999999999993,39215.68627451327
0.21828199999999992,39024.390243905684
0.2183839999999999,38834.9514563137
0.2184869999999999,38834.9514563137
0.2185899999999999,38647.342995171886
0.2186929999999999,38461.53846154106
0.21879699999999988,38647.342995171886
0.21890099999999987,38647.342995171886
0.21900399999999987,38277.51196172487
0.21910799999999986,38277.51196172487
0.21921299999999985,38095.238095240275
0.21931699999999985,37914.69194312995
0.21942299999999984,37914.69194312995
0.21952799999999983,37914.69194312995
0.21963399999999983,38095.238095240275
0.21973899999999982,37914.69194312995
0.21984399999999982,37735.849056605555
0.2199499999999998,37735.849056605555
0.2200559999999998,37558.68544601098
0.2201619999999998,37383.17757009486
0.2202689999999998,37383.17757009486
0.2203759999999998,37383.17757009486
0.2204829999999998,37383.17757009486
0.2205899999999998,37383.17757009486
0.22069699999999978,37383.17757009486
0.22080399999999978,37383.17757009486
0.22091099999999977,37209.30232558261
0.22101799999999977,37037.03703703807
0.22112599999999977,37037.03703703807
0.22123399999999976,37037.03703703807
0.22134199999999976,36866.35944700546
0.22144999999999976,36697.2477064227
0.22155899999999976,36697.2477064227
0.22166799999999975,36697.2477064227
0.22177699999999975,36866.35944700546
0.22188599999999975,36866.35944700546
0.22199399999999975,36697.2477064227
0.22210299999999975,36866.35944700546
0.22221199999999974,36697.2477064227
0.22231999999999974,36697.2477064227
0.22242999999999974,36866.35944700546
0.22253799999999974,36697.2477064227
0.22264699999999973,36866.35944700546
0.22275599999999973,37037.03703703807
0.22286399999999973,37037.03703703807
0.22297199999999973,37037.03703703807
0.22307999999999972,37037.03703703807
0.22318799999999972,37037.03703703807
0.22329599999999972,36697.2477064227
0.22340399999999971,32520.32520325253
0.2235139999999997,16877.63713080161
0.24206899999999967,18390.80459770153
0.24240099999999967,11713.030746705896
0.27013599999999965,51612.90322580105
0.27021299999999965,50955.41401273294
0.27029099999999967,50000.00000000204
0.27036999999999967,48780.4878048788
0.27045099999999966,48484.848484840775
0.27053399999999966,48192.7710843375
0.2706159999999997,47619.047619062934
0.27069999999999966,47337.27810651596
0.27078399999999964,46783.62573100052
0.27086899999999964,46242.774566479675
0.2709549999999996,45977.011494250895
0.2710419999999996,45454.545454543004
0.2711289999999996,44943.820224716204
0.2712179999999996,44692.73743017141
0.27130699999999963,44198.89502762755
0.2713969999999996,43715.84699453821
0.2714879999999996,43010.75268818037
0.2715799999999996,42780.748663103266
0.2716739999999996,42553.19148935684
0.2717669999999996,41884.81675392742
0.2718619999999996,41450.777202072815
0.2719579999999996,41237.11340205601
0.2720549999999996,41025.64102564087
0.2721519999999996,40816.32653061766
0.2722499999999996,40404.04040404531
0.2723479999999996,39800.99502487429
0.2724479999999996,39408.866995072196
0.2725489999999996,39215.68627451327
0.2726509999999996,38834.9514563137
0.2727529999999996,38461.53846154106
0.27285699999999957,38277.51196171979
0.27296099999999957,37558.685446006086
0.2730659999999996,36866.359447000745
0.2731739999999996,36697.24770641335
0.2732829999999996,36529.680365292676
0.27339199999999964,36199.09502262006
0.27350199999999963,36199.09502262006
0.27361299999999966,36036.03603603604
0.27372299999999966,35555.55555555947
0.27383499999999966,35242.29074890222
0.27394799999999964,35087.719298244694
0.27406199999999964,34934.49781659705
0.27417599999999964,34632.034632037445
0.2742909999999996,34482.758620688175
0.2744069999999996,34334.763948500324
0.27452299999999963,33898.30508475173
0.2746399999999996,33755.2742616052
0.2747589999999996,33613.445378149
0.2748769999999996,33333.33333333084
0.2749969999999996,33195.020746889175
0.2751169999999996,32921.8106995894
0.2752379999999996,32786.88524589869
0.2753599999999996,32653.061224490433
0.2754819999999996,32258.064516132872
0.2756049999999996,32128.514056225
0.2757299999999996,31999.99999999642
0.2758539999999996,31620.553359683392
0.2759799999999996,31496.062992128904
0.2761069999999996,31372.549019607202
0.2762339999999996,31249.999999995853
0.2763619999999996,31007.75193798017
0.2764899999999996,30769.230769226273
0.27661999999999964,30651.340996167266
0.27674999999999966,30534.35114503998
0.27688099999999966,30418.250950568814
0.27701199999999965,30303.030303025484
0.27714399999999967,30188.679245281284
0.2772759999999997,30303.030303031857
0.2774089999999997,30534.35114503998
0.2775399999999997,30651.340996167266
0.27767099999999967,30651.340996167266
0.2778009999999997,30534.35114503998
0.2779319999999997,30534.35114503998
0.27806299999999967,30651.340996167266
0.27819399999999966,30651.340996167266
0.2783239999999997,30534.35114503998
0.2784549999999997,30651.340996167266
0.27858599999999967,30303.030303025484
0.2787159999999997,29520.295202949717
0.2788499999999997,28880.86642599573
0.2789869999999997,16877.6371308026
0.3166279999999997,57971.01449274229
0.3166959999999997,57142.85714284531
0.3167659999999997,56338.02816900179
0.31683599999999973,55172.41379310108
0.31690799999999975,54421.76870747995
0.31698099999999974,53691.27516778155
0.31705499999999975,52631.57894737345
0.31712999999999975,51612.90322580105
0.31720699999999974,50955.41401273294
0.31728499999999976,50314.46540879863
0.31736399999999976,49999.99999998469
0.3174439999999998,49689.44099378196
0.3175239999999998,48780.4878048788
0.3176049999999998,48192.7710843375
0.3176879999999998,47904.19161677429
0.3177709999999998,20202.020202022653
0.3178549999999998,9345.794392523714
0.31816699999999976,9467.455621301948
0.31871099999999974,20253.16455696312
0.31901199999999974,43478.2608695742
0.3191059999999997,44198.89502762755
0.3191959999999997,43010.75268816754
0.3192869999999997,42328.042328043506
0.3193819999999997,42328.042328043506
0.3194759999999997,42553.19148935684
0.3195709999999997,42328.042328043506
0.3196639999999997,37209.302325587414
0.3197599999999997,25316.455696203895
0.3212129999999997,12658.227848100836
0.3214899999999997,10914.051841746492
0.3218449999999997,12519.56181533645
0.3222229999999997,10113.780025284626
0.40172099999999966,54054.05405404054
0.4017949999999997,53333.33333331947
0.4018689999999997,52631.578947354225
0.4019449999999997,52287.58169934154
0.40202099999999974,51282.05128205474
0.40209799999999973,50632.91139240779
0.40217699999999973,50000.00000000204
0.4022559999999997,49079.7546012197
0.4023369999999997,48780.487804862285
0.40241899999999975,48192.7710843375
0.4025009999999998,47337.27810651596
0.40258499999999975,47058.8235294108
0.40266999999999975,47058.8235294108
0.40275499999999975,46511.62790697526
0.40283999999999975,45714.28571429075
0.40292699999999976,45454.545454557345
0.40301499999999973,44943.82022473022
0.4031029999999997,44444.44444445482
0.4031929999999997,43956.043956053625
0.40328299999999967,43478.2608695742
0.40337499999999965,43243.24324324541
0.40346699999999963,42780.748663103266
0.40355999999999964,42553.191489369405
0.4036539999999996,42553.191489369405
0.4037479999999996,42105.263157901834
0.4038419999999996,41666.66666667318
0.4039379999999996,41237.113402067815
0.40403399999999956,40816.32653061766
0.40413199999999955,40609.137055837
0.40422999999999953,39999.999999993306
0.40432899999999955,39603.96039603265
0.40442999999999957,39408.866995072196
0.4045309999999996,39024.390243900394
0.4046329999999996,38834.951456303235
0.4047359999999996,38461.53846153079
0.4048389999999996,38095.238095230205
0.40494399999999964,37914.691943124955
0.40504899999999966,37558.685446006086
0.40515499999999965,37037.03703702855
0.4052619999999997,36697.24770641335
0.4053709999999997,36529.680365292676
0.40547999999999973,36529.680365292676
0.40558999999999973,36363.63636362752
0.40569899999999975,36036.03603602703
0.4058099999999998,35874.439461878785
0.4059209999999998,35555.55555555947
0.4060329999999998,35398.230088503646
0.4061459999999998,35087.719298253236
0.40625899999999976,34782.608695659364
0.40637399999999974,34632.034632037445
0.4064889999999997,34334.763948500324
0.4066049999999997,33898.30508475173
0.4067219999999997,33472.80334728184
0.4068409999999997,33333.33333333084
0.4069609999999997,33195.020746889175
0.4070809999999997,33057.85123967427
0.4072019999999997,32921.8106995894
0.40732299999999966,32653.061224490433
0.40744499999999967,32520.3252032562
0.40756799999999965,32258.064516132872
0.40769099999999964,32000.000000003525
0.4078159999999996,31872.50996015921
0.4079409999999996,31620.553359683392
0.4080669999999996,31372.549019607202
0.4081939999999996,31007.75193798017
0.40832199999999963,30769.230769226273
0.40845199999999965,30651.340996167266
0.40858199999999967,30534.35114503998
0.40871299999999966,30303.030303031857
0.40884399999999965,30075.187969926115
