Time,Frequency
9.499999999999999e-05,41884.816753926694
0.00018999999999999998,41666.66666666666
0.000286,41450.77720207253
0.000382,41025.64102564102
0.00047900000000000004,40816.32653061225
0.000577,40609.13705583756
0.000675,40404.040404040396
0.0007740000000000001,40201.00502512562
0.0008730000000000001,39999.999999999985
0.0009730000000000001,39800.99502487562
0.0010730000000000002,39603.96039603962
0.0011740000000000001,39603.96039603962
0.001275,39408.866995073884
0.001376,39215.68627450977
0.0014780000000000001,39215.68627450977
0.0015800000000000002,39024.39024390242
0.0016820000000000003,38834.95145631068
0.0017850000000000003,38647.34299516909
0.0018880000000000004,38461.53846153849
0.0019920000000000003,38461.53846153849
0.002096,38277.51196172249
0.0022,38095.23809523808
0.002305,37914.69194312792
0.0024100000000000002,37735.84905660371
0.0025160000000000004,37914.69194312792
0.0026220000000000006,37914.69194312792
0.0027270000000000007,37735.84905660371
0.002833000000000001,37558.685446009375
0.002939000000000001,37383.177570093496
0.003046000000000001,37209.30232558141
0.003153000000000001,37209.30232558141
0.003261000000000001,37209.30232558141
0.0033680000000000008,37383.17757009342
0.003476000000000001,37209.30232558134
0.003582000000000001,36866.35944700458
0.003691000000000001,37037.0370370371
0.003799000000000001,36866.359447004725
0.003907000000000001,36866.359447004725
0.0040160000000000005,36866.359447004725
0.004124,36697.24770642211
0.004233,36529.680365296874
0.0043419999999999995,36529.680365296874
0.004451999999999999,36697.24770642211
0.004560999999999999,36529.680365296874
0.004669999999999999,36363.63636363641
0.004779999999999999,36363.63636363641
0.0048899999999999985,36529.680365296874
0.004999999999999998,36529.680365296874
0.005108999999999998,36199.09502262446
0.005218999999999998,36199.09502262446
0.005329999999999998,36363.63636363641
0.005439999999999998,36199.09502262446
0.005549999999999998,36036.03603603604
0.005660999999999998,36199.09502262446
0.005771999999999998,36036.03603603604
0.0058819999999999975,35874.43946188339
0.005993999999999998,36036.03603603604
0.006104999999999998,36199.09502262446
0.006215999999999998,36036.03603603604
0.006325999999999997,35874.43946188339
0.0064379999999999975,35874.43946188339
0.0065489999999999975,35874.43946188339
0.006660999999999998,36036.03603603604
0.006771999999999998,35874.43946188339
0.006882999999999998,35714.285714285674
0.006994999999999998,35714.285714285674
0.007106999999999998,35874.43946188339
0.007218999999999998,35874.43946188339
0.007329999999999998,35714.285714285674
0.007441999999999998,35555.5555555555
0.007553999999999998,35714.285714285674
0.0076669999999999985,35714.285714285674
0.0077779999999999985,35555.555555555635
0.007890999999999999,35555.555555555635
0.008002999999999998,35555.555555555635
0.008115999999999998,35714.28571428595
0.008227999999999997,35555.555555555635
0.008339999999999997,35555.555555555635
0.008452999999999997,35555.555555555635
0.008564999999999996,35398.2300884955
0.008677999999999996,35555.555555555635
0.227399,38277.51196172487
0.22750299999999998,38095.238095240275
0.22760799999999998,38095.238095240275
0.22771299999999997,38277.51196172487
0.22781799999999996,38095.238095240275
0.22792199999999996,37914.69194312995
0.22802799999999995,37735.849056605555
0.22813299999999995,37735.849056605555
0.22823999999999994,37735.849056605555
0.22834499999999994,37914.69194312995
0.22845199999999993,38277.51196172487
0.22855599999999993,37914.69194312995
0.22866099999999992,37735.849056605555
0.22876699999999991,37037.03703703807
0.2288729999999999,37383.17757009486
0.2289829999999999,33613.44537815292
0.2290869999999999,23054.755043228583
0.2292209999999999,14234.875444840385
0.2294339999999999,15748.031496063591
0.22978299999999988,24767.80185758591
0.22994199999999987,22857.14285714356
0.23010599999999987,21333.333333334103
0.23029199999999986,24844.72049689526
0.23048099999999985,33195.020746889175
0.23061399999999985,36697.2477064227
0.23072199999999984,32921.8106995894
0.23083199999999984,32921.8106995894
0.23096499999999984,36866.35944700546
0.23107499999999984,37037.03703703807
0.23118199999999983,36529.68036529731
0.23129099999999983,37037.03703703807
0.23140099999999983,37037.03703703807
0.23150699999999982,36529.68036529731
0.23161699999999982,36697.2477064227
0.23172599999999982,36529.68036529731
0.23183499999999982,36363.636363636695
0.23194499999999982,36199.0950226246
0.23205499999999982,36697.2477064227
0.23216599999999982,37209.30232558261
0.2322729999999998,36529.68036529731
0.2323809999999998,36529.68036529731
0.2324919999999998,36529.68036529731
0.2325999999999998,36199.0950226246
0.2327109999999998,36529.68036529731
0.2328209999999998,36363.636363636695
0.2329299999999998,35714.2857142854
0.2330409999999998,36199.0950226246
0.2331539999999998,36697.2477064227
0.2332619999999998,36529.68036529731
0.2333719999999998,36036.03603603604
0.2334809999999998,36199.0950226246
0.2335939999999998,36529.68036529731
0.2337019999999998,36036.03603603604
0.2338129999999998,36036.03603603604
0.2339239999999998,36036.03603603604
0.2340349999999998,36036.03603603604
0.2341459999999998,36036.03603603604
0.2342569999999998,36036.03603603604
0.2343679999999998,36036.03603603604
0.2344789999999998,36036.03603603604
0.2345899999999998,36036.03603603604
0.2347009999999998,35874.43946188325
0.2348119999999998,35874.43946188325
0.2349239999999998,36036.03603603604
0.2350349999999998,36036.03603603604
0.2351459999999998,35874.43946188325
0.2352569999999998,35874.43946188325
0.2353689999999998,35874.43946188325
0.2354799999999998,35555.55555555508
0.2355919999999998,35714.2857142854
0.2357049999999998,35555.55555555508
0.2358159999999998,35398.23008849495
0.2359299999999998,35714.2857142854
0.2360419999999998,35874.43946188325
0.2361539999999998,36036.03603603604
0.2362649999999998,35555.55555555508
0.2363759999999998,35398.23008849495
0.2364899999999998,35714.2857142854
0.2366019999999998,35714.2857142854
0.2367139999999998,35398.23008849495
0.23682599999999981,35242.2907488979
0.23693999999999982,35714.2857142854
0.23705299999999982,35714.2857142854
0.23716399999999982,23668.63905325409
0.23727699999999982,16701.461377870313
0.5470749999999999,39024.390243900394
0.5471759999999999,38647.34299517707
0.5472799999999999,38647.34299517707
0.5473829999999998,38461.53846154106
0.5474869999999998,38277.51196171979
0.5475909999999998,38095.238095230205
0.5476959999999998,37914.69194311498
0.5478009999999999,37914.69194311498
0.5479069999999999,37914.69194311498
0.5480119999999999,37735.849056585794
0.548118,37558.685446006086
0.548224,37558.685446006086
0.548331,37558.685446006086
0.5484370000000001,37383.177570104555
0.548544,37383.177570104555
0.548651,37383.177570104555
0.548758,37209.302325587414
0.5488649999999999,37037.03703703807
0.5489729999999999,37037.03703703807
0.5490809999999999,37209.302325587414
0.5491889999999999,37209.302325587414
0.5492959999999999,36866.359447000745
0.5494039999999999,36866.359447000745
0.5495129999999999,36697.24770641335
0.5496209999999999,36697.24770641335
0.549731,36697.24770641335
0.549839,36529.68036528342
0.549949,36697.24770641335
0.550058,36529.68036528342
0.5501670000000001,36363.636363618345
0.5502770000000001,36363.636363618345
0.5503870000000002,36363.636363618345
0.5504970000000002,36199.09502262006
0.5506070000000003,36036.03603604505
0.5507180000000003,36199.09502262006
0.5508290000000002,36036.03603602703
0.5509390000000003,36036.03603602703
0.5510510000000003,36199.09502262006
0.5511610000000003,36036.03603604505
0.5512720000000003,35874.43946188772
0.5513830000000003,35874.43946188772
0.5514950000000003,35874.43946188772
0.5516060000000003,35714.2857142854
0.5517180000000003,35874.43946188772
0.5518300000000003,35874.43946188772
0.5519410000000002,35555.5555555507
0.5520530000000002,35398.230088486256
0.5521660000000003,35714.2857142854
0.5522790000000003,35874.43946188772
0.5523900000000003,35555.5555555507
0.5525020000000003,35398.230088486256
0.5526150000000003,35398.230088486256
0.5527280000000003,35398.230088486256
0.5528410000000004,35398.230088486256
0.5529540000000004,35555.5555555507
0.5530670000000004,35555.5555555507
0.5531790000000004,35398.230088486256
0.5532920000000005,35398.230088486256
0.5534050000000005,35398.230088486256
0.5535180000000005,35242.29074890222
0.5536310000000005,35242.29074890222
0.5537450000000005,35242.29074890222
0.5538580000000005,35242.29074890222
0.5539720000000005,35242.29074890222
0.5540850000000005,35087.71929826178
0.5541990000000004,35242.29074890222
0.5543130000000004,35242.29074890222
0.5544260000000004,35087.71929826178
0.5545400000000004,35087.71929826178
0.5546540000000003,34934.49781660552
0.5547680000000003,34934.49781660552
0.5548830000000002,35242.29074890222
0.5549970000000002,35087.719298244694
0.5551100000000002,34934.49781660552
0.5552250000000002,35398.230088503646
0.5553390000000001,35398.230088503646
