Time,Frequency
0.00010899999999999999,36363.63636363637
0.00021799999999999999,35874.439461883405
0.000329,35398.230088495584
0.000441,34782.60869565218
0.0005549999999999999,34188.03418803418
0.0006709999999999999,33898.30508474575
0.000789,33472.80334728033
0.000907,33057.85123966942
0.001028,32786.88524590163
0.001149,32128.51405622489
0.0012720000000000001,31620.5533596838
0.0013980000000000002,31496.062992125997
0.001525,31250.000000000007
0.001652,30888.0308880309
0.001781,30651.34099616859
0.001911,30534.35114503816
0.002042,30418.250950570316
0.002173,30303.030303030264
0.002305,30075.18796992479
0.0024370000000000004,29850.746268656716
0.0025710000000000004,29850.746268656716
0.0027050000000000004,29739.776951672848
0.0028390000000000004,29411.764705882342
0.0029740000000000005,29304.029304029325
0.0031110000000000005,29304.029304029325
0.0032470000000000003,29090.909090909085
0.0033840000000000003,28776.978417266182
0.0035220000000000004,28571.428571428583
0.0036620000000000003,28469.750889679715
0.0038020000000000003,28368.794326241165
0.003943,28169.01408450709
0.004084,27972.02797202799
0.004227,28070.175438596525
0.00437,27972.02797202799
0.0045119999999999995,27681.66089965396
0.0046559999999999995,27586.206896551692
0.004801,27491.40893470786
0.004946,27491.40893470786
0.005092,27397.260273972628
0.005237,27303.754266211618
0.005384,27303.754266211618
0.00553,27118.64406779668
0.005677,27027.02702702708
0.0058249999999999994,27027.02702702708
0.005972999999999999,27027.02702702708
0.006120999999999999,26936.026936026978
0.0062689999999999985,26666.666666666675
0.006417999999999998,26578.073089700993
0.0065689999999999985,26578.073089700993
0.006718999999999998,26490.066225165545
0.0068699999999999985,26490.066225165545
0.007020999999999999,26490.066225165545
0.007171999999999999,26402.640264026373
0.007322999999999999,26229.50819672126
0.007474999999999999,26143.79084967314
0.007627999999999999,26229.508196721337
0.007781,26229.508196721337
0.007932999999999999,26058.631921824104
0.008086,25974.025974026037
0.008239999999999999,25974.025974026037
0.008393999999999999,25974.025974026037
0.008547999999999998,25974.025974026037
0.008701999999999998,25889.96763754043
0.008855999999999998,25723.472668810246
0.009010999999999998,25641.02564102566
0.009166999999999998,25641.02564102566
0.009322999999999998,25559.10543130998
0.009478999999999998,25559.10543130998
0.009635999999999997,25559.10543130998
0.009791999999999997,25477.707006369565
0.009948999999999996,25396.825396825454
0.010105999999999995,25316.455696202505
0.010263999999999995,25236.593059936942
0.010421999999999996,25316.455696202647
0.010580999999999995,25316.455696202647
0.010737999999999994,25157.232704402606
0.010896999999999993,25157.232704402606
0.011055999999999993,25157.232704402606
0.011214999999999992,25078.369905956126
0.011373999999999992,24922.118380062297
0.011533999999999992,24844.720496894457
0.011694999999999992,24844.720496894457
0.011855999999999992,24767.80185758511
0.012016999999999991,24767.80185758511
0.012178999999999992,24767.80185758511
0.012339999999999992,24390.24390243901
0.012501999999999992,24316.10942249244
0.012667999999999992,24464.831804281406
0.012830999999999992,24390.243902439142
0.012994999999999991,24464.831804281406
0.01315899999999999,24464.831804281406
0.01332199999999999,24390.243902439142
0.01348599999999999,24242.42424242434
0.013649999999999989,23880.597014925355
0.013815999999999988,23880.597014925355
0.013984999999999989,23529.41176470588
0.014150999999999988,18433.17972350229
0.35970499999999994,33898.305084743755
0.35982099999999995,33472.80334728184
0.35994099999999996,33333.333333338545
0.36005999999999994,32786.885245906145
0.3601809999999999,32520.3252032562
0.3603039999999999,32258.064516132872
0.3604269999999999,31746.03174603496
0.3605519999999999,31496.062992128904
0.36067899999999986,31250.00000000263
0.36080599999999985,31007.751937986843
0.36093499999999984,30888.03088802979
0.36106399999999983,30534.35114503351
0.36119399999999985,30303.030303025484
0.36132599999999987,30188.679245281284
0.3614579999999999,29850.74626865778
0.3615909999999999,29850.74626865778
0.3617259999999999,29739.776951670738
0.3618589999999999,29304.02930402681
0.3619949999999999,29197.08029197118
0.3621319999999999,29090.90909090642
0.3622689999999999,28880.86642598994
0.3624069999999999,28776.97841726614
0.3625459999999999,28776.97841726614
0.3626849999999999,28571.428571428318
0.3628239999999999,28268.551236751344
0.3629649999999999,28169.014084511906
0.3631069999999999,28169.014084511906
0.3632489999999999,28169.014084511906
0.36339099999999985,28169.014084511906
0.36353299999999983,27777.77777778212
0.3636749999999998,27681.66089965554
0.3638209999999998,27874.56445993209
0.3639639999999998,27681.66089965554
0.36410799999999977,27491.408934709252
0.36425299999999977,27303.75426621275
0.36439899999999975,27303.75426621275
0.36454599999999976,27303.75426621275
0.36469199999999974,27303.75426621275
0.36483899999999975,27303.75426621275
0.3649849999999997,27118.644067797555
0.36513199999999973,26845.637583895776
0.3652799999999997,26755.852842809927
0.3654299999999997,26845.637583890773
0.3655789999999997,26755.852842809927
0.3657279999999997,26666.666666669604
0.3658779999999997,26666.666666669604
0.3660279999999997,26578.073089701375
0.36617799999999967,26490.066225163417
0.3663289999999997,26402.640264026602
0.3664799999999997,26315.789473686724
0.3666319999999997,26315.789473686724
0.36678399999999967,26315.789473686724
0.36693599999999965,26229.508196721337
0.36708799999999964,26143.79084967077
0.36724099999999965,26143.79084967077
0.36739399999999967,26058.63192182396
0.3675469999999997,25974.025974028085
0.36770099999999967,25974.025974028085
0.36785499999999965,25889.967637540143
0.36800899999999964,25806.451612900524
0.36816399999999966,25723.472668809816
0.3683189999999997,25723.472668809816
0.36847499999999966,25723.472668809816
0.3686299999999997,25641.02564102737
0.36878599999999967,25477.707006370973
0.36894199999999966,25396.825396824614
0.36909999999999965,25477.70700636647
0.36925699999999967,25396.825396824614
0.3694139999999997,25316.455696203895
0.3695719999999997,25236.593059935974
0.36972999999999967,25157.232704399314
0.3698889999999997,25078.369905955034
0.3700479999999997,25000.00000000102
0.3702079999999997,24922.118380061085
0.3703679999999997,24844.72049689098
0.3705289999999997,24844.72049689098
0.37068999999999974,24767.80185758378
0.37085099999999976,24691.358024692046
0.37101299999999976,24464.831804279722
0.37117499999999976,23952.095808383165
0.3713399999999998,23598.820058998568
0.8055539999999997,19512.195121950197
0.8058119999999996,26845.637583890773
0.8059639999999997,27027.02702703041
0.8061099999999997,26666.666666669604
0.8062599999999996,26578.073089701375
0.8064099999999996,26666.666666669604
0.8065609999999996,26755.852842814893
0.8067099999999996,26490.066225163417
0.8068599999999996,26143.79084967077
0.8070119999999996,26143.79084967077
0.8071659999999996,26229.508196721337
0.8073179999999996,26058.63192182867
0.8074709999999996,25559.105431309275
0.8076249999999996,25889.967637540143
0.8077839999999996,26143.79084967077
0.8079339999999996,25723.472668805225
0.8080899999999996,25723.472668805225
0.8082449999999997,22598.870056492295
0.8084009999999997,22598.870056492295
0.8085989999999997,25316.455696195004
0.8087549999999998,25316.455696195004
0.8089149999999998,25559.105431309275
0.8090709999999999,25316.455696203895
0.8092279999999998,25157.232704399314
0.8093869999999999,25157.232704399314
0.8095459999999999,25078.36990595067
0.8097049999999999,24922.118380061085
0.809865,24539.877300618205
0.8100259999999999,24844.720496899543
0.8101909999999999,25078.3699059594
0.8103479999999998,24691.358024692046
0.8105099999999998,24390.2439024394
0.8106719999999998,24390.2439024394
0.8108379999999998,24767.801857588038
0.8109999999999998,24691.358024692046
0.8111609999999998,24539.87730060985
0.8113239999999998,24169.184290032386
0.8114869999999998,24096.38554216875
0.8116549999999998,24464.831804275567
0.8118189999999998,24242.424242420388
0.8119819999999999,23809.523809523598
0.8121489999999999,23952.095808387145
0.8123179999999999,24242.424242428544
0.8124829999999998,24316.10942249065
0.8126479999999998,23880.597014919298
0.8128119999999999,23529.4117647054
0.8129829999999999,23809.523809523598
0.8131519999999999,20997.375328079816
0.8133189999999999,10471.204188480333
