Time,Frequency
7.3e-05,53691.275167785236
0.000147,52631.57894736842
0.00022199999999999998,51612.90322580644
0.000299,50632.91139240507
0.000377,50000.00000000002
0.000457,49689.440993788834
0.0005369999999999999,49079.754601226974
0.000618,48484.84848484849
0.0007,48192.77108433737
0.000783,47619.04761904763
0.0008659999999999999,47058.82352941179
0.0009509999999999999,46511.627906976755
0.0010359999999999998,45977.011494252845
0.0011229999999999999,45714.28571428571
0.00121,45197.74011299439
0.001298,44444.44444444449
0.0013869999999999998,43956.043956043985
0.0014779999999999997,43715.84699453552
0.0015689999999999996,43243.24324324323
0.0016609999999999997,43010.75268817205
0.0017539999999999997,42780.74866310163
0.0018469999999999997,42328.04232804234
0.0019409999999999996,41884.81675392666
0.0020359999999999996,41666.66666666659
0.0021319999999999998,41450.77720207253
0.002228,41025.64102564105
0.002325,40816.32653061225
0.002423,40816.32653061225
0.002521,40609.137055837535
0.002619,40201.00502512564
0.002718,40000.000000000065
0.0028179999999999998,40000.000000000065
0.0029179999999999996,39800.995024875665
0.0030179999999999994,39603.96039603962
0.0031189999999999994,39408.866995073884
0.0032199999999999993,39215.68627450977
0.0033219999999999994,39024.39024390246
0.0034239999999999995,39024.39024390246
0.0035269999999999993,39024.39024390246
0.0036289999999999994,38834.95145631076
0.003731999999999999,38834.95145631076
0.003834999999999999,38834.95145631076
0.003937999999999999,38647.342995169136
0.004040999999999999,38647.342995169136
0.0041449999999999985,38461.53846153849
0.004247999999999998,38277.51196172249
0.004352999999999998,38277.51196172249
0.004456999999999998,38095.23809523808
0.004561999999999998,38095.23809523808
0.004666999999999998,37914.69194312792
0.0047719999999999985,37558.6854460093
0.004877999999999999,37383.17757009334
0.004984999999999999,37383.17757009334
0.005091999999999999,37558.6854460093
0.005199,37383.177570093496
0.005305,37209.30232558141
0.005412999999999999,37209.30232558141
0.00552,37037.037037037175
0.005627999999999999,37209.30232558141
0.005735999999999999,37209.30232558141
0.005842999999999999,37037.037037037175
0.005950999999999999,37209.30232558141
0.006058999999999998,37209.30232558141
0.006165999999999999,37209.30232558141
0.006273999999999998,37383.17757009334
0.006380999999999999,37383.17757009334
0.006487999999999999,37558.6854460093
0.006594999999999999,37558.6854460093
0.0067009999999999995,37558.6854460093
0.006808,37735.84905660371
0.006914,37735.84905660371
0.00702,37735.84905660371
0.007126,37735.84905660371
0.007232000000000001,37735.84905660371
0.007338000000000001,37735.84905660371
0.007444000000000001,37558.6854460093
0.007550000000000001,37209.30232558141
0.0076570000000000015,36529.680365296874
0.007765000000000001,31999.99999999997
0.007876000000000001,17278.61771058316
0.008015000000000001,13793.103448275888
0.009885,10914.051841746259
0.077027,72072.07207207209
0.077082,70796.4601769899
0.077138,70175.43859648939
0.077195,69565.21739130194
0.077252,68376.06837606488
0.07731,67796.61016948751
0.07736900000000001,66666.66666666168
0.07742800000000001,65573.77049179738
0.07748900000000002,65040.65040649773
0.07755000000000002,63492.06349206293
0.07761200000000003,62500.00000000526
0.07767600000000002,62015.503875973685
0.07774000000000002,45197.74011299522
0.07780500000000001,45714.28571428712
0.07791700000000001,61538.461538465686
0.07798000000000001,58823.5294117659
0.078047,57553.95683453228
0.078116,57142.857142856636
0.078186,56737.58865248137
0.078256,56338.0281690128
0.07832700000000001,55555.55555555354
0.07839800000000001,55172.41379310108
0.07847100000000001,54794.52054794249
0.07854300000000002,54054.054054050684
0.07861700000000002,53691.27516778155
0.07869100000000002,53333.33333332934
0.07876600000000003,52980.13245032683
0.07884100000000004,52287.58169934628
0.07891700000000004,51948.05194805617
0.07899400000000004,51948.05194805617
0.07907100000000003,51612.90322581029
0.07914800000000002,50955.414012741945
0.07922600000000002,50632.91139240779
0.07930500000000001,50632.91139240779
0.07938400000000001,50314.46540880741
0.079463,50000.00000000204
0.079543,49689.44099379052
0.079623,49382.71604938409
0.079704,49382.71604938409
0.079785,49079.75460122805
0.07986599999999999,48780.4878048788
0.07994799999999999,48780.4878048788
0.08002999999999999,48780.4878048788
0.08011199999999999,48484.84848484893
0.08019399999999999,48192.7710843375
0.08027699999999999,47904.19161676633
0.08035999999999999,47619.047619047196
0.08044399999999999,47619.047619047196
0.08052799999999999,47619.047619047196
0.08061199999999999,47337.27810650818
0.08069599999999999,47058.8235294108
0.08078099999999999,47058.8235294108
0.080866,46783.62573099293
0.080951,46783.62573099293
0.081037,46783.62573099293
0.081122,46242.77456647225
0.081208,46242.77456647225
0.081295,46242.77456647225
0.08138100000000001,45977.011494250895
0.08146800000000001,45977.011494250895
0.08155500000000002,45977.011494250895
0.08164200000000002,45977.011494250895
0.08172900000000002,45714.2857142835
0.08181600000000003,45714.2857142835
0.08190400000000003,45714.2857142835
0.08199100000000004,45454.545454543004
0.08207900000000004,45454.545454543004
0.08216700000000005,45454.545454543004
0.08225500000000005,45454.545454543004
0.08234300000000006,45197.740112991676
0.08243100000000006,45197.740112991676
0.08252000000000007,44943.820224716204
0.08260800000000007,44692.73743016448
0.08269800000000008,44943.820224716204
0.08278700000000008,44444.44444444454
0.08287600000000009,39800.99502487704
0.14496700000000007,75471.69811321111
0.14501900000000006,73394.4954128454
0.14507300000000006,72072.07207207209
0.14512800000000006,72072.07207207209
0.14518400000000006,71428.5714285708
0.14523900000000006,70175.43859648939
0.14529600000000006,68965.51724137635
0.14535300000000007,68376.06837606488
0.14541200000000007,67796.61016948751
0.14547000000000007,66115.70247933338
0.14553000000000008,65040.65040649773
0.14559100000000008,64516.12903225131
0.1456530000000001,63999.99999999284
0.1457150000000001,62992.12598424404
0.1457780000000001,62015.50387596034
0.1458420000000001,61538.461538452546
0.14590700000000012,60606.06060605097
0.14597200000000013,59701.49253730319
0.14603900000000014,59259.25925924873
0.14610600000000015,58394.16058393053
0.14617400000000016,57553.95683453228
0.14624300000000018,57142.857142867964
0.14631300000000017,56737.58865249254
0.14638300000000015,55944.05594406515
0.14645400000000014,55555.55555556424
0.14652600000000013,55172.413793111635
0.14659800000000012,54421.76870749022
0.1466710000000001,53691.27516779155
0.1467450000000001,53333.33333333921
0.1468200000000001,53333.33333333921
0.14689500000000008,52980.13245033657
0.14697000000000007,52287.58169935102
0.14704600000000007,51612.90322581029
0.14712300000000006,51282.05128205474
0.14720100000000005,51282.05128205474
0.14727900000000005,50955.414012741945
0.14735700000000004,50314.46540880741
0.14743600000000004,49689.44099379052
0.14751600000000004,49382.71604938409
0.14759700000000003,49382.71604938409
0.14767800000000003,49079.75460122805
0.14775900000000003,48780.4878048788
0.14784100000000003,48484.84848484893
0.14792300000000003,48192.7710843375
0.14800600000000003,47904.19161676633
0.14808900000000003,47337.27810650818
0.14817300000000003,47058.8235294108
0.14825800000000003,46783.62573099293
0.14834300000000003,46511.62790697526
0.14842900000000003,46511.62790697526
0.14851500000000004,46242.77456647225
0.14860100000000004,45977.011494250895
0.14868800000000004,45714.2857142835
0.14877500000000005,45454.545454543004
0.14886300000000005,45454.545454543004
0.14895100000000006,45197.740112991676
0.14903900000000006,44943.820224716204
0.14912800000000007,44943.820224716204
0.14921700000000007,44692.73743016448
0.14930600000000008,44444.44444444111
0.14939600000000008,44198.895027620776
0.1494860000000001,43956.043956040216
0.1495770000000001,43956.043956040216
0.1496680000000001,43956.043956040216
0.14975900000000011,43715.84699453158
0.14985000000000012,43478.26086956108
0.14994200000000013,43478.26086956108
0.15003400000000014,43478.26086956108
0.15012600000000015,43478.26086956108
0.15021800000000016,43243.243243238925
0.15031000000000017,43010.75268816754
0.15040300000000018,43010.75268816754
0.15049600000000019,43010.75268816754
0.1505890000000002,43010.75268816754
0.1506820000000002,42780.74866309692
0.15077500000000021,42780.74866309692
0.15086900000000023,43010.75268816754
0.15096200000000023,43010.75268816754
0.15105500000000024,42780.74866309692
0.15114800000000025,42553.19148935684
0.15124200000000027,42553.19148935684
0.15133600000000028,42328.04232803729
0.1514300000000003,42328.04232803729
0.1515250000000003,42553.19148935684
0.1516190000000003,42328.04232803729
0.15171300000000032,41884.81675392133
0.15180800000000033,41025.64102564087
0.15190400000000034,40609.13705584272
0.15200300000000033,41450.777202072815
0.15210100000000032,20050.125313282682
0.21897400000000034,54421.76870747995
0.21904000000000035,54421.76870747995
0.21912100000000034,60150.37593983968
0.21918700000000035,59701.49253730319
0.21925400000000037,58823.529411753894
0.21932100000000038,57553.95683453228
0.2193900000000004,57142.857142867964
0.21946000000000038,57142.857142867964
0.21953000000000036,55555.55555556424
0.21960000000000035,52287.58169935102
0.21967400000000034,53691.27516779155
0.21975300000000034,55555.55555556424
0.21982300000000032,54054.05405406082
0.21989700000000031,53691.27516779155
0.2199710000000003,52980.13245033657
0.2200460000000003,52287.58169935102
0.2201220000000003,51612.90322581029
0.22019900000000028,51282.05128205474
0.22027700000000028,51282.05128205474
0.22035500000000027,50955.414012741945
0.22043300000000027,50314.46540880741
0.22051200000000026,50000.00000000204
0.22059200000000026,50000.00000000204
0.22067200000000026,49689.44099379052
0.22075200000000025,49079.75460122805
0.22083300000000025,48780.4878048788
0.22091500000000025,48780.4878048788
0.22099700000000025,48484.84848484893
0.22107900000000025,47904.19161676633
0.22116200000000025,47619.047619047196
0.22124600000000025,47619.047619047196
0.22133000000000025,47337.27810650818
0.22141400000000025,47058.8235294108
0.22149900000000025,46783.62573099293
0.22158400000000025,46511.62790697526
0.22167000000000026,46242.77456647225
0.22175600000000026,46242.77456647225
0.22184300000000026,45977.011494250895
0.22192900000000026,45714.2857142835
0.22201700000000027,45714.2857142835
0.22210400000000027,45454.545454543004
0.22219200000000028,45454.545454543004
0.22228000000000028,45197.740112991676
0.2223680000000003,44943.820224716204
0.2224570000000003,44943.820224716204
0.2225460000000003,44692.73743016448
0.2226350000000003,44444.44444444111
0.2227250000000003,44444.44444444111
0.22281500000000032,44444.44444444111
0.22290500000000033,44444.44444444111
0.22299500000000033,44198.895027620776
0.22308500000000034,43956.043956040216
0.22317600000000035,43956.043956040216
0.22326700000000035,43715.84699453158
0.22335800000000036,43243.243243238925
0.22345000000000037,43478.26086956108
0.22354300000000038,43478.26086956108
0.2236340000000004,42553.19148935684
0.2237270000000004,43010.75268816754
0.2844150000000004,57553.95683453228
0.2844820000000004,55944.055944054286
0.2845540000000004,56338.02816902381
0.2846250000000004,55555.55555556424
0.2846960000000004,54794.52054795291
0.2847690000000004,54054.05405406082
0.2848420000000004,53691.27516778155
0.28491700000000036,53333.33333331947
0.2849910000000004,52287.58169934154
0.2850670000000004,51612.90322580105
0.2851440000000004,51282.05128203649
0.2852220000000004,50632.91139239001
0.28530000000000044,49999.99999998469
0.28538000000000047,49999.99999998469
0.2854600000000005,49382.71604936717
0.2855400000000005,49382.71604936717
0.28562200000000054,49382.71604936717
0.28570200000000057,48780.487804862285
0.2857840000000006,48484.848484840775
0.2858660000000006,48192.7710843375
0.2859490000000006,47904.19161677429
0.2860320000000006,47619.047619062934
0.2861160000000006,47337.27810651596
0.28620000000000057,47058.8235294108
0.28628500000000057,46783.62573100052
0.28637000000000057,46511.627906990274
0.28645600000000054,46242.774566479675
0.2865420000000005,45977.011494250895
0.2866290000000005,45714.28571429075
0.2867160000000005,45454.545454557345
0.2868040000000005,45454.545454557345
0.2868920000000005,44943.82022473022
0.28698000000000046,44692.73743017141
0.28707000000000044,44943.820224716204
0.28715900000000044,44692.73743017141
0.28724800000000045,44198.89502762755
0.2873380000000004,43956.043956040216
0.28742900000000043,43956.043956040216
0.28752000000000044,43956.043956040216
0.28761100000000045,43715.84699453821
0.28770200000000046,43478.2608695742
0.28779400000000044,43715.84699453821
0.2878860000000004,43478.26086956108
0.2879770000000004,43010.75268816754
0.28807000000000044,43010.75268816754
0.28816300000000045,42780.748663103266
0.28825600000000046,42553.191489369405
0.28835000000000044,33898.30508475173
0.2884440000000004,18475.75057736886
0.3345750000000004,9163.802978235835
0.3353280000000004,39999.999999993306
0.3354480000000004,49382.71604936717
0.33552800000000044,49079.7546012197
0.33561000000000046,48780.4878048788
0.33569100000000046,47904.19161677429
0.33577400000000046,47619.047619062934
0.33585800000000043,47058.82352942617
0.3359420000000004,46783.62573100052
0.3360280000000004,46242.774566479675
0.3361130000000004,45714.28571429075
0.33620100000000036,45714.28571429075
0.33628800000000036,45197.74011299876
0.33637600000000034,44943.820224716204
0.33646500000000035,44198.89502762755
0.33655400000000035,43956.043956053625
0.33664600000000033,43715.84699453821
0.3367360000000003,43243.24324324541
0.3368290000000003,43478.2608695742
0.3369210000000003,19230.76923077053
0.3724750000000003,47058.8235294108
0.3725620000000003,47337.27810651596
0.3726450000000003,46242.774566479675
0.37273100000000026,45977.011494250895
0.37281800000000026,45197.74011299876
0.37290500000000026,44943.82022473022
0.37299500000000024,45197.74011299876
0.3730830000000002,39408.866995072196
0.3731720000000002,34482.758620688175
0.5253620000000002,49689.44099376482
0.5254410000000003,48780.487804862285
0.5255230000000003,48192.7710843375
0.5256050000000003,47337.27810651596
0.5256890000000003,46783.62573098533
0.5257740000000003,45454.54545452867
0.5258600000000003,40609.137055837
0.5259500000000004,41025.64102565255
0.5260570000000003,45197.74011299876
0.5261450000000003,43956.043956040216
0.5262340000000003,44198.89502762755
0.5263270000000003,43956.043956040216
0.5264150000000003,28571.428571422653
0.5265090000000003,21505.37634408377
0.5266950000000004,28368.794326240684
0.5268810000000004,42105.26315788953
0.5269770000000004,19464.720194644822
0.5283320000000004,39024.390243900394
0.5284330000000004,34482.758620688175
0.5285370000000004,34632.034632037445
0.5286650000000004,39024.390243900394
0.5287680000000003,34482.758620688175
0.5288700000000004,27874.564459937483
0.5290000000000004,20565.552699230237
0.5291570000000003,20618.556701028007
0.5293890000000003,14925.373134325797
0.6944050000000004,35087.719298244694
0.6945200000000004,31620.553359676454
0.6946330000000004,34042.553191491505
0.6947730000000004,42553.191489369405
0.6948680000000004,42328.042328043506
0.6949610000000004,32786.88524589869
0.6950570000000004,32921.8106995894
0.6952050000000004,41666.66666667318
0.6953000000000004,41025.64102562919
0.6953970000000004,40816.326530594546
0.6954950000000004,40404.04040403398
0.6955930000000005,40000.0000000044
0.6956930000000004,40000.0000000044
0.6957930000000004,39800.99502487429
0.6958930000000004,39603.96039603265
0.6959940000000004,39408.86699506142
0.6960950000000005,39408.86699506142
0.6961970000000005,39215.68627451327
0.6962980000000005,38834.95145632417
0.6964010000000005,38461.53846154106
0.6965040000000005,38095.238095230205
0.6966090000000005,38277.51196171979
0.6967140000000005,38277.51196171979
0.6968180000000005,37735.849056605555
0.6969230000000005,27210.884353739973
0.6970300000000005,18735.362997655175
0.6972170000000005,10113.780025284626
