Time,Frequency
7.4e-05,54054.05405405407
0.000147,53333.33333333335
0.00022199999999999998,52631.57894736842
0.00029699999999999996,51948.05194805193
0.000374,50955.414012738845
0.000451,50000.00000000001
0.000531,49382.7160493827
0.000611,48192.77108433734
0.000693,47619.04761904763
0.000777,47337.27810650888
0.000861,46783.62573099417
0.000946,46242.77456647399
0.001032,45714.28571428571
0.001119,44943.8202247191
0.001207,44444.44444444444
0.001297,44198.89502762432
0.001387,43478.26086956524
0.001478,43010.75268817205
0.001571,42553.1914893617
0.001664,41884.81675392671
0.001759,41237.11340206187
0.0018549999999999999,40816.32653061225
0.0019529999999999999,40404.04040404044
0.002051,39603.96039603962
0.0021509999999999997,39215.68627450977
0.002253,38834.95145631068
0.002355,38095.23809523808
0.002459,37735.84905660371
0.002565,37383.17757009342
0.002671,36866.35944700458
0.0027790000000000002,36529.6803652968
0.0028880000000000004,36199.09502262446
0.0029980000000000002,35874.43946188339
0.0031090000000000002,35555.55555555556
0.0032210000000000003,35398.230088495635
0.003334,35087.719298245625
0.003447,34782.60869565215
0.003562,34482.75862068965
0.003677,34188.03418803415
0.003794,34042.55319148931
0.003911,33755.27426160334
0.0040290000000000005,33472.80334728026
0.004148000000000001,33195.02074688798
0.004268000000000001,32786.885245901714
0.0043890000000000005,32520.325203252072
0.004512,32258.064516129038
0.004635,31746.031746031684
0.00476,31372.549019607843
0.004887000000000001,31128.40466926077
0.005015,30651.34099616859
0.005144,30188.679245282965
0.005276,29962.546816479316
0.005409000000000001,29739.776951672848
0.005543000000000001,29520.29520295208
0.005678000000000001,29411.76470588239
0.005814000000000001,29197.08029197081
0.00595,29090.909090909085
0.0060880000000000005,29197.08029197081
0.0062250000000000005,29090.909090909085
0.0063620000000000005,28985.50724637679
0.006500000000000001,28985.50724637679
0.006638000000000001,28469.750889679715
0.006776000000000001,16771.488469601678
0.006919000000000001,11887.07280832095
0.013456000000000001,8394.543546694642
0.023697,10037.641154328745
0.024260999999999998,10958.904109589019
0.025518,9122.00684150514
0.025997,9876.543209876565
0.027509999999999996,9987.515605493138
0.10929499999999999,37735.849056605555
0.10939999999999998,41450.777202072815
0.10950699999999998,45714.2857142835
0.10959299999999998,44692.73743016448
0.10968199999999999,44198.89502762416
0.109772,43715.84699453821
0.10986299999999999,43243.24324324541
0.10995499999999998,42780.748663103266
0.11004799999999998,42328.042328043506
0.11014199999999998,41666.66666666716
0.11023699999999997,41025.64102564087
0.11033399999999997,40609.137055837
0.11043199999999997,40201.00502512467
0.11053099999999998,39800.99502487429
0.11063099999999998,39215.686274507934
0.11073199999999998,38647.342995166706
0.11083499999999999,38277.51196172233
0.110939,37735.849056605555
0.11104399999999999,37383.17757009486
0.11115099999999999,37037.03703703807
0.11125799999999998,36697.2477064227
0.11136699999999998,36363.636363636695
0.11147599999999998,35874.43946188325
0.11158699999999998,35714.2857142854
0.11169899999999998,35398.23008849495
0.11181099999999998,34934.49781659282
0.11192499999999998,34632.03463203328
0.11203999999999999,34482.758620688175
0.11215599999999999,34188.034188034464
0.112272,33898.30508474774
0.11238999999999999,33613.44537815292
0.11250799999999998,33333.33333333469
0.11262799999999998,33057.85123967048
0.11274799999999997,32653.061224490433
0.11286999999999997,32520.32520325253
0.11299299999999997,32258.064516129263
0.11311599999999997,31872.50996015921
0.11324099999999997,31746.031746031465
0.11336699999999997,31620.553359683392
0.11349299999999997,31249.99999999924
0.11361999999999997,31007.751937983507
0.11374899999999998,30888.03088802979
0.11387799999999998,30534.35114503836
0.11400799999999998,30303.030303031857
0.11413999999999998,30188.679245284446
0.11427199999999997,29962.546816480582
0.11440499999999997,29739.776951673804
0.11453899999999996,29520.29520295274
0.11467399999999996,29520.29520295274
0.11480999999999995,29411.76470588295
0.11494499999999995,28985.507246376972
0.11508199999999995,27681.66089965421
0.12463099999999995,8221.993833504494
0.12523599999999996,10191.082802547668
0.12560399999999997,12718.60095389526
0.12602099999999997,12779.552715655203
0.12623299999999996,10484.92791612077
0.12664699999999995,12987.012987013457
0.12699599999999994,13675.213675213625
0.12726299999999993,11299.435028248361
0.12758099999999994,10443.864229765164
0.12797099999999995,12539.184952978063
0.12834699999999993,16666.66666666638
0.12860899999999995,19464.720194647452
0.12882699999999994,17543.859649122347
0.12901999999999994,15999.999999999985
0.12928299999999995,21798.365122617084
0.12951999999999994,29411.76470588295
0.12964999999999993,29090.909090909357
0.12979199999999994,30075.187969926115
0.12992499999999993,29629.629629630457
0.13005799999999992,25641.025641025088
0.13019499999999992,23121.387283236127
0.13036999999999993,25889.967637540143
0.13054099999999993,28880.866425992834
0.13067899999999993,22857.14285714356
0.13081799999999993,22471.910112359852
0.13102899999999992,28776.97841726614
0.13117399999999993,22662.889518414097
0.13130699999999992,17204.301075269068
0.13152699999999992,20942.40837696371
0.13177199999999992,20887.728459530328
0.13190899999999992,17316.017316017682
0.1333439999999999,8714.596949891047
0.22009799999999996,23460.410557184205
0.22027299999999997,20725.388601036408
0.22043899999999997,14842.30055658595
0.22065899999999997,20408.163265305942
0.22097799999999998,53333.33333333921
0.22105099999999997,51948.05194805617
0.22112799999999996,51612.90322581029
0.22120499999999996,50314.46540880741
0.22128299999999995,49079.75460122805
0.22136399999999995,48192.7710843375
0.22144599999999995,47619.047619047196
0.22152999999999995,47337.27810650818
0.22161399999999995,46511.62790697526
0.22169899999999995,45977.011494250895
0.22178599999999996,45454.545454543004
0.22187299999999996,44692.73743016448
0.22196199999999996,44444.44444444111
0.22205199999999997,43956.043956040216
0.22214199999999998,43010.75268816754
0.222234,42780.74866309692
0.222328,42553.19148935684
0.222421,41666.666666661135
0.22251600000000002,41237.11340205601
0.22261300000000003,40816.326530611885
0.22271000000000005,40201.00502513028
0.22280900000000003,39603.96039604353
0.22290900000000002,38834.9514563137
0.22301100000000001,38277.51196172487
0.223115,38095.238095240275
0.22322,37558.68544601098
0.223325,37037.03703703807
0.223433,36866.35944700546
0.223541,36529.68036529731
0.22365,36036.03603603604
0.22376,35714.2857142854
0.223872,35555.55555555508
0.223984,35242.2907488979
0.224097,34934.49781659282
0.224211,34782.60869565097
0.224326,34334.763948496235
0.224441,34042.55319148748
0.224559,33898.305084743755
0.22467600000000001,33472.80334727796
0.22479500000000002,33195.020746885355
0.22491500000000003,32921.810699585636
0.22503600000000004,32653.061224486733
0.22515800000000005,32388.66396760806
0.22528100000000006,31999.99999999997
0.22540500000000008,31496.062992128904
0.22553100000000006,31250.00000000263
0.22565900000000005,31007.751937986843
0.22578700000000004,30534.35114503998
0.22591700000000003,30188.679245284446
0.22604900000000003,29962.546816480582
0.22618200000000002,29739.776951673804
0.22631600000000002,29411.76470588295
0.226451,29304.02930402979
0.226588,29197.08029197118
0.226724,28985.507246376972
0.226862,28985.507246376972
0.227,28880.866425992834
0.227138,28776.97841726614
0.227277,28880.866425992834
0.227416,28880.866425992834
0.227554,28776.97841726614
0.227693,28673.835125447877
0.227832,27303.75426621275
0.227972,17660.04415011111
0.23043,10840.10840108377
0.230716,8714.596949891047
0.231168,9122.006841505246
0.23280800000000001,10854.816824966261
0.233216,11347.51773049672
0.233545,12084.59214501518
0.233921,16326.53061224429
0.234207,16528.925619834296
0.234411,12012.012012012014
0.234691,13468.013468013214
0.235077,17937.219730941626
0.23528500000000002,18181.818181818348
0.235523,16032.06412825653
0.23572500000000002,18648.0186480193
0.236022,23121.387283237982
0.236154,19704.433497537444
0.236368,15296.367112810833
0.23656,14519.05626134312
0.236891,22346.368715083972
0.237111,15904.572564612217
0.237249,13605.442176870629
0.237614,11661.80758017506
0.237837,8611.410118407024
0.23829999999999998,10568.031704095005
0.23876599999999998,8781.558726673764
0.239057,8714.596949891047
0.239677,10362.694300518204
0.239975,9009.00900900901
0.240449,9489.916963226455
0.240863,8928.57142857135
0.241292,8547.008547008616
0.244185,8620.6896551723
0.2969059999999999,14466.54611211506
0.2972539999999999,20833.33333333358
0.2974589999999999,22346.368715085704
0.2976379999999999,21917.80821917783
0.2978169999999999,25806.451612900524
0.2980029999999999,25641.025641022807
0.2981269999999999,25236.593059935974
0.29831499999999994,31496.062992128904
0.29844399999999993,31496.062992128904
0.2985689999999999,31007.751937986843
0.2986979999999999,30888.03088802979
0.2988269999999999,30534.35114503351
0.2989569999999999,30534.35114503351
0.29908899999999994,30418.250950568814
0.29921899999999996,29739.776951670738
0.29935199999999995,29629.629629624364
0.299488,29739.776951670738
0.299622,29520.295202949717
0.299757,29304.02930402681
0.299893,28985.507246376972
0.30003,29090.90909090642
0.300169,28985.507246376972
0.30030500000000004,28673.83512545073
0.300445,28469.750889682175
0.300584,28268.551236751344
0.300726,28368.794326240684
0.300867,28268.551236751344
0.301008,28070.17543859849
0.30115,27777.77777777677
0.301293,28070.17543859849
0.301438,28169.014084511906
0.30157799999999996,27681.66089965554
0.30172199999999993,27681.66089965554
0.30186699999999994,27681.66089965554
0.3020109999999999,27681.66089965554
0.3021559999999999,27777.77777778212
0.3022999999999999,27972.027972032574
0.3024439999999999,27586.206896555817
0.30258599999999986,21739.130434783823
0.32921399999999984,13377.926421404964
0.32956199999999986,21917.808219181163
0.3298119999999998,41884.81675392742
0.3299269999999998,51948.05194803744
0.3300029999999998,50955.41401273294
0.33008099999999985,50314.46540879863
0.33015999999999984,48780.4878048788
0.33023999999999987,47619.047619062934
0.33032399999999984,37558.68544601587
0.3304079999999998,37037.03703703807
0.3305369999999998,45197.74011299876
0.3306239999999998,44943.82022473022
0.3307139999999998,44692.73743017141
0.33080199999999976,43715.84699453821
0.33089299999999977,43243.24324324541
0.33098499999999975,43010.75268816754
0.33107799999999976,42553.19148935684
0.33117099999999977,41666.666666661135
0.3312659999999998,41025.64102564087
0.3313629999999998,40609.137055837
0.3314609999999998,39999.999999993306
0.3315599999999998,39408.866995072196
0.3316609999999998,39024.390243900394
0.3317629999999998,38647.342995166706
0.33186599999999983,38095.238095240275
0.3319699999999998,37735.849056605555
0.3320759999999998,37383.17757009486
0.3321819999999998,36866.359447000745
0.3322899999999998,36529.680365292676
0.33239899999999983,36036.03603603604
0.33250899999999983,35714.2857142854
0.33262099999999983,35398.23008849495
0.33273299999999983,34934.49781659705
0.33284699999999984,34782.608695659364
0.3329619999999998,34482.758620696426
0.3330769999999998,34188.03418804055
0.33319399999999977,33898.30508475173
0.33331099999999975,33613.445378156845
0.3334299999999997,33333.333333338545
0.3335489999999997,32786.885245906145
0.3336699999999997,32520.3252032562
0.3337929999999997,32258.064516132872
0.33391599999999966,32128.514056225
0.33404099999999964,31872.50996015921
0.33416499999999966,31372.549019607202
0.33429199999999964,31128.404669259824
0.33441999999999966,30888.03088802979
0.33454899999999965,30651.340996167266
0.33467899999999967,30418.250950568814
0.33480999999999966,30188.679245281284
0.3349419999999997,29962.54681647747
0.3350749999999997,29739.776951670738
0.3352089999999997,29520.295202949717
0.3353439999999997,28880.86642598994
0.3401399999999997,13029.31596091198
0.3403109999999997,13816.925734022945
0.3407539999999997,32388.66396760442
0.34088999999999975,19801.980198019046
0.3410009999999998,13355.592654424918
0.34129399999999976,13559.322033898778
0.34159999999999974,13422.818791946636
0.34188399999999974,12965.964343598504
0.3421959999999997,16032.064128255639
0.3425009999999997,15748.031496062731
0.34269499999999975,15009.38086303924
0.34300899999999973,17738.35920177247
0.34322799999999976,15533.980582524644
0.34345999999999977,15444.01544401655
0.34374299999999974,17660.04415011111
0.34397799999999973,12924.071082391356
0.3441959999999997,12903.225806451417
0.3445969999999997,20253.16455696027
0.34481599999999973,14787.430683918295
0.4114679999999997,12232.415902140898
0.41177899999999973,16293.279022404464
0.4121219999999997,27118.644067797555
0.4122699999999997,20408.163265305942
0.4124169999999997,18867.924528302778
0.4126619999999997,20304.5685279185
0.4128409999999997,21447.721179623964
0.4130559999999997,25316.455696203895
0.4132139999999997,18058.69074492217
0.4133719999999997,19184.652278177426
0.41365699999999966,27027.027027025342
0.4137889999999997,27397.260273971246
0.4139529999999997,20408.163265305942
0.4140809999999997,15065.913370998012
0.4143449999999997,18264.840182648655
0.4146119999999997,16771.488469603446
0.4147829999999997,13050.570962480148
0.41508899999999965,11958.146487294913
0.41539599999999965,11887.072808321318
0.41575799999999963,11922.503725781833
0.44917899999999966,43478.2608695742
0.44930199999999965,63492.063492083915
0.4493629999999996,62500.00000001881
0.4494279999999996,62500.00000001881
0.4494909999999996,60606.060606076455
0.44955599999999957,60606.060606076455
0.44962299999999955,59701.492537327926
0.44968799999999953,57553.95683453228
0.4497569999999995,57142.85714284531
0.44982699999999953,56737.58865248137
0.44989699999999955,55555.55555556424
0.44996799999999954,54421.76870747995
0.4500409999999995,53691.27516778155
0.45011499999999954,52980.13245032683
0.45018999999999953,52287.58169934154
0.45026599999999956,51612.90322580105
0.45034299999999955,50632.91139239001
0.45042099999999957,49689.44099378196
0.4505009999999996,49079.7546012197
0.4505819999999996,47904.19161675837
0.4506639999999996,47058.8235294108
0.4507489999999996,46783.62573100052
0.4508339999999996,45977.011494265564
0.4509199999999996,45714.28571429075
0.4510079999999996,45197.74011299876
0.4510949999999996,44692.73743017141
0.45118499999999956,36363.636363636695
0.45127399999999956,36036.03603603604
0.45140499999999956,43243.24324324541
0.45149599999999956,42105.263157901834
0.45158999999999955,41237.113402067815
0.45168599999999953,40609.137055837
0.4517839999999995,39999.999999993306
0.45188299999999954,39408.866995072196
0.45198399999999955,38834.9514563137
0.45208599999999954,38095.238095240275
0.45218999999999954,37735.849056605555
0.45229599999999953,37383.17757009486
0.4524019999999995,36866.359447000745
0.4525099999999995,36697.24770641335
0.45261899999999955,36199.09502262006
0.4527279999999996,35874.439461878785
0.4528399999999996,35714.2857142854
0.4529509999999996,35087.719298253236
0.4530639999999996,34934.49781659705
0.45317899999999955,34782.60869565097
0.45329299999999956,34334.763948500324
0.45340899999999956,34042.553191491505
0.45352599999999954,33755.2742616052
0.45364399999999955,33472.80334728184
0.45376299999999953,33057.85123966669
0.45388299999999954,32653.061224490433
0.45400499999999955,32258.064516132872
0.45412799999999953,31872.50996015921
0.4542529999999995,31496.06299212202
0.45437899999999953,31128.404669259824
0.45450699999999955,30888.03088802979
0.45463599999999954,30651.340996167266
0.45476599999999956,30418.250950568814
0.45489699999999955,30188.679245281284
0.4550289999999996,30075.187969926115
0.45516199999999957,30075.187969926115
0.45529499999999956,30075.187969926115
0.45542799999999956,29962.54681647747
0.45556099999999955,29411.764705876947
0.4556949999999996,28776.97841726614
0.4558329999999996,23880.59701492721
0.4559729999999996,18518.518518519035
0.4561679999999996,18223.234624147146
0.45640499999999956,23668.63905325409
0.45660699999999954,30534.35114503351
0.45674299999999957,31372.549019607202
0.4568689999999996,18306.636155607866
0.45699799999999957,16597.510373444587
0.45730599999999955,29090.90909090642
0.45747999999999955,21978.021978020108
0.45758099999999957,20202.020202019823
0.4578439999999996,21333.333333332524
0.4579769999999996,19277.108433735
0.4582189999999996,22598.87005649938
0.4583919999999996,21917.80821917783
0.45857299999999956,22160.664819944584
0.4587569999999996,23391.812865496464
0.45893399999999956,26315.789473681918
0.4590989999999996,27681.66089965554
0.4592379999999996,20887.72845953184
0.4593879999999996,17582.41758241823
0.45962099999999956,23529.4117647054
0.45984299999999956,17021.27659574374
0.45996099999999956,16877.63713080062
0.4603129999999996,34482.758620688175
0.4604349999999996,35087.719298244694
0.4605449999999996,32653.061224490433
0.4606629999999996,31128.404669259824
0.4607899999999996,30075.18796991984
0.4609199999999996,30888.03088802979
0.46105599999999963,24464.831804283873
0.4611789999999996,25477.707006370973
0.4613829999999996,34482.758620688175
0.4614929999999996,28571.428571428318
0.4616149999999996,13071.89542483657
0.4617729999999996,14209.591474244215
0.4622269999999996,19851.116625308096
0.46233599999999964,15325.670498083633
0.46262999999999965,14466.54611211506
0.46285799999999966,14440.433212996417
0.4631829999999997,20408.163265305942
0.46341199999999966,28776.97841726614
0.4635749999999997,20887.72845953184
0.46368999999999966,15065.913370998012
0.46395799999999965,13628.620102214554
0.46422099999999966,12480.499219968746
0.46454499999999965,10810.810810810543
0.46486199999999966,11299.435028248805
0.46528499999999967,12364.76043276751
0.46556999999999965,8752.735229759583
0.4659319999999996,9445.100354191412
0.5553079999999994,8456.659619451288
0.5560859999999993,29850.746268663963
0.5562539999999992,35242.29074890222
0.5563539999999992,34934.49781658859
0.5564809999999992,39024.390243900394
0.5565829999999993,38277.51196171979
0.5566859999999992,38095.238095230205
0.5567919999999993,37037.03703703807
0.5568959999999993,36866.359447000745
0.5570079999999993,37209.3023255682
0.5571129999999993,35242.29074888498
0.5572229999999994,35242.29074888498
0.5573399999999994,36199.09502262006
0.5574499999999994,35398.230088503646
0.5575609999999994,34042.553191491505
0.5576759999999994,34782.60869564257
0.5577959999999994,35398.230088486256
0.5579059999999995,33898.305084743755
0.5580219999999995,34042.553191491505
0.5581419999999995,33472.80334728184
0.5582569999999994,33195.02074688153
0.5583809999999995,33057.85123965911
0.5584979999999995,32258.064516125654
0.5586229999999995,32520.3252032562
0.5587459999999995,32000.000000003525
0.5588689999999995,32000.000000003525
0.5589959999999995,32258.064516125654
0.5591189999999995,31746.03174602797
0.5592439999999995,31372.549019607202
0.5593709999999995,31128.4046692531
0.5594989999999995,30651.340996160747
0.5596279999999996,30188.67924527496
0.5597599999999996,29962.54681647747
0.5598929999999996,31496.062992128904
0.5600269999999996,35398.230088486256
0.5601469999999996,37209.3023255682
0.5602529999999997,34934.49781658859
0.5603619999999997,34632.034632037445
0.5604819999999997,34482.758620688175
0.5605929999999997,34042.553191491505
0.5607139999999997,34188.03418804055
0.5608279999999997,33613.445378156845
0.5609479999999997,33333.33333334626
0.5610659999999996,32921.8106995894
0.5611879999999996,32653.061224483034
0.5613089999999996,32520.3252032562
0.5614329999999996,32000.000000003525
0.5615549999999996,31872.50996015921
0.5616829999999996,31746.03174602797
0.5618059999999996,31007.751937973502
0.5619349999999996,31128.4046692531
0.5620639999999997,30888.03088802979
0.5621919999999997,30651.340996173785
