Time,Frequency
7.8e-05,50000.00000000001
0.000158,49382.716049382725
0.00023799999999999998,48192.77108433736
0.00031999999999999997,47337.27810650888
0.00040399999999999995,46783.62573099414
0.000489,46242.77456647396
0.000575,45714.28571428571
0.000662,45197.74011299436
0.00075,44692.737430167595
0.000839,44198.8950276243
0.000929,43715.846994535495
0.00102,43243.24324324323
0.0011120000000000001,42780.74866310163
0.0012050000000000001,42553.19148936175
0.001299,42328.04232804234
0.001393,41884.81675392671
0.001488,41450.77720207253
0.001584,41237.11340206182
0.001681,41025.64102564101
0.001778,40609.137055837535
0.001876,40404.04040404035
0.001975,40404.04040404035
0.0020740000000000003,40201.00502512564
0.0021730000000000005,39800.995024875665
0.0022730000000000003,39603.96039603962
0.0023740000000000002,39603.96039603962
0.002475,39408.866995073884
0.002576,39024.39024390246
0.0026780000000000003,38834.95145631076
0.002781,38834.95145631076
0.002884,38647.342995169136
0.0029869999999999996,38461.53846153849
0.0030909999999999996,38277.51196172249
0.0031949999999999995,38277.51196172249
0.0032999999999999995,38277.51196172249
0.0034039999999999995,38095.23809523808
0.0035089999999999995,37914.69194312792
0.0036139999999999996,37735.84905660371
0.0037199999999999998,37735.84905660378
0.003826,37735.84905660378
0.003932,37558.6854460093
0.004038,37383.17757009334
0.004145,37383.17757009334
0.004252000000000001,37383.17757009334
0.004359000000000001,37383.17757009334
0.004466000000000001,37209.30232558141
0.0045730000000000015,37037.037037037175
0.004681000000000001,37037.037037037175
0.004789000000000001,36866.359447004725
0.004897,36866.359447004725
0.005006,36866.359447004725
0.005114,36697.24770642211
0.005222999999999999,36697.24770642211
0.005331999999999999,36697.24770642211
0.005440999999999999,36697.24770642211
0.0055499999999999985,36697.24770642211
0.005658999999999998,36529.680365296874
0.005767999999999998,36529.680365296874
0.005877999999999998,36529.680365296874
0.0059869999999999975,36363.63636363641
0.006096999999999997,36363.63636363641
0.006206999999999997,36363.63636363641
0.006316999999999997,36529.680365296874
0.006426999999999997,36529.680365296874
0.006535999999999997,36363.63636363641
0.0066459999999999965,36363.63636363641
0.006755999999999996,36529.680365296874
0.006865999999999996,36697.24770642211
0.006974999999999996,36697.24770642211
0.007083999999999996,36697.24770642211
0.007192999999999995,36697.24770642211
0.007301999999999995,36866.359447004725
0.007410999999999995,36529.680365296874
0.0075189999999999944,36697.247706421964
0.007629999999999994,36866.35944700458
0.007736999999999995,29090.909090909085
0.016934999999999995,10191.082802547759
0.017136999999999996,10075.566750629729
0.017719999999999996,17777.777777777817
0.017930999999999996,9400.705052878955
0.018169999999999995,11188.811188811183
0.018781999999999997,24316.10942249244
0.018884999999999996,20833.33333333339
0.019110999999999996,10088.27238335437
0.019268999999999994,9445.100354191258
0.021374999999999995,10914.051841746234
0.021502999999999994,10457.516339869257
0.022107999999999996,19950.1246882792
0.022267999999999996,8474.576271186437
0.07472,46511.62790697526
0.074796,36866.35944700546
0.074892,12383.90092879269
0.075013,13114.754098360669
0.075538,46783.62573099293
0.075623,45977.011494250895
0.075709,45454.545454543004
0.075797,45454.545454543004
0.07588500000000001,45197.740112991676
0.07597300000000001,44692.73743016448
0.07606200000000002,44444.44444444111
0.07615200000000003,44198.89502762416
0.07624200000000003,43956.04395604692
0.07633300000000003,43715.84699453821
0.07642400000000002,43478.260869567646
0.07651600000000001,43010.752688173954
0.07660800000000001,43010.752688173954
0.076702,43010.752688173954
0.076794,42780.748663103266
0.076888,42553.19148936312
0.076981,42328.042328043506
0.07707599999999999,42328.042328043506
0.07716999999999999,42105.263157895686
0.07726499999999999,42105.263157895686
0.07735999999999998,41884.81675392742
0.07745499999999998,41666.66666666716
0.07755099999999998,41666.66666666716
0.07764699999999998,41666.66666666716
0.07774299999999998,41450.777202072815
0.07783899999999998,41025.64102564087
0.07793599999999998,41025.64102564087
0.07803399999999998,41025.64102564087
0.07813099999999998,40609.137055837
0.07822899999999998,40816.326530611885
0.07832799999999998,40816.326530611885
0.07842499999999998,40201.00502512467
0.07852399999999998,40404.040404039646
0.07862399999999999,40609.137055837
0.07872199999999999,40404.040404039646
0.07882099999999999,40201.00502512467
0.07891999999999999,40201.00502512467
0.07901999999999999,40201.00502512467
0.079119,40201.00502512467
0.079219,40201.00502512467
0.079318,39999.99999999886
0.079418,39800.99502487429
0.079518,39603.96039603809
0.07961900000000001,39999.99999999886
0.07972000000000001,39800.99502487429
0.07981900000000001,39408.866995072196
0.07992100000000002,39603.96039603809
0.08002200000000002,39999.99999999886
0.08012300000000003,39999.99999999886
0.08022200000000003,39603.96039603809
0.08032300000000003,39800.99502487429
0.08042400000000004,39800.99502487429
0.08052400000000004,39603.96039603809
0.08062500000000004,39800.99502487429
0.08072600000000005,39603.96039603809
0.08082600000000005,39800.99502487429
0.08092800000000006,40404.040404039646
0.08102700000000006,26490.06622516585
0.08112600000000006,17738.359201774107
0.16374500000000003,40609.137055837
0.16386300000000004,49689.44099379052
0.16394200000000003,49079.75460122805
0.16402400000000003,48484.84848484893
0.16410500000000003,47058.8235294108
0.16418900000000003,47058.8235294108
0.16427500000000003,19607.843137255302
0.165726,42105.26315788953
0.16582300000000003,42328.04232803729
0.16591600000000004,41884.81675392133
0.16601200000000005,41666.666666661135
0.16610700000000006,41450.77720206685
0.16620400000000007,41237.113402061914
0.1663000000000001,40609.13705584272
0.16639800000000007,40816.326530611885
0.16649700000000006,41025.64102564087
0.16659400000000008,40609.13705584272
0.16669200000000006,40201.00502513028
0.16679100000000005,40000.0000000044
0.16689100000000004,40404.04040404531
0.16699100000000003,40201.00502513028
0.16708900000000002,39603.96039604353
0.16719,39603.96039604353
0.167291,39603.96039604353
0.16739199999999999,39603.96039604353
0.16749299999999998,39603.96039604353
0.16759399999999997,39603.96039604353
0.16769499999999996,39408.86699507759
0.16779599999999995,39215.68627451327
0.16789799999999994,39408.86699507759
0.16799999999999993,39215.68627451327
0.16810099999999992,38834.9514563137
0.1682039999999999,39024.390243905684
0.1683069999999999,39215.68627451327
0.1684089999999999,39024.390243905684
0.16851099999999988,38834.9514563137
0.16861399999999988,39024.390243905684
0.16871699999999987,39408.86699507759
0.16881899999999986,39215.68627451327
0.16891999999999985,38647.342995171886
0.16902299999999984,38834.9514563137
0.16912699999999983,38834.9514563137
0.16922899999999982,38834.9514563137
0.16933299999999982,39603.96039604353
0.1694349999999998,39024.390243905684
2.3856719999999996,41450.77720200128
2.3857779999999997,45714.28571427625
2.385865,45197.74011302711
2.3859529999999998,44943.820224716204
2.3860419999999998,44943.820224716204
2.386131,44943.820224716204
2.38622,44444.44444448224
2.386309,44444.44444448224
2.3863999999999996,44198.89502762755
2.3864889999999996,44198.89502762755
2.3865809999999996,44198.89502762755
2.3866699999999996,43715.846994577994
2.3867619999999996,43715.846994577994
2.3868529999999994,43478.2608695742
2.3869449999999994,43715.846994577994
2.3870369999999994,43478.2608695742
2.3871279999999993,43243.24324321946
2.3872209999999994,43478.2608695742
2.3873129999999994,43243.24324321946
2.3874049999999993,42780.74866311597
2.3874979999999995,42780.74866311597
2.3875919999999993,43010.75268811619
2.3876849999999994,42780.74866311597
2.3877779999999995,42553.19148944479
2.3878719999999993,42553.19148944479
2.387965999999999,42553.19148944479
2.388059999999999,42553.19148944479
2.3881539999999988,42553.19148944479
2.3882479999999986,42553.19148944479
2.3883419999999984,42328.04232809324
2.3884359999999982,42328.04232809324
2.388530999999998,42328.04232809324
2.388624999999998,41884.81675391525
2.388719999999998,42105.26315791414
2.388815999999998,37037.03703703807
2.388909999999998,37209.302325529774
2.457567999999998,35555.555555568244
2.457691999999998,32520.325203285556
2.457792999999998,31746.03174606993
2.4579379999999977,26666.66666668934
2.4580449999999976,24844.720496916678
2.4582379999999975,33755.27426162892
2.4583669999999973,41025.64102560584
2.4584749999999973,45977.011494162885
2.4585619999999975,45977.011494162885
2.4586489999999976,45197.740112913714
2.458735999999998,44943.820224716204
2.458825999999998,45454.54545461469
2.458913999999998,45197.74011302711
2.4590019999999977,44692.73743012983
2.4590909999999977,44444.44444437258
2.459180999999998,44444.44444437258
2.459270999999998,44198.89502762755
2.459360999999998,43956.04395612066
2.459451999999998,43956.04395612066
2.459542999999998,43715.846994577994
2.4596339999999977,43715.846994577994
2.4597259999999976,43243.24324332326
2.4598169999999975,43010.75268821888
2.4599109999999973,43243.24324321946
2.4600029999999973,43010.75268811619
2.4600959999999974,43010.75268811619
2.4601889999999975,42553.19148934427
2.4602819999999976,42553.19148934427
2.4603769999999976,42780.74866311597
2.4604699999999977,42328.04232809324
2.4605639999999975,42328.04232809324
2.4606589999999975,42328.04232809324
2.4607529999999973,42105.26315791414
2.4608479999999973,42105.26315791414
2.460942999999997,41884.81675391525
2.461037999999997,41884.81675391525
2.4611339999999973,41884.81675391525
2.4612289999999972,41666.666666624995
2.4613249999999973,41666.666666624995
2.4614209999999974,41666.666666624995
2.4615169999999975,41450.77720209666
2.4616129999999976,41450.77720209666
2.4617099999999974,41450.77720209666
2.4618059999999975,41450.77720209666
2.4619029999999973,41666.666666624995
2.4619989999999974,41450.77720209666
2.4620949999999975,41450.77720209666
2.4621919999999973,41450.77720209666
2.4622879999999974,41237.11340215041
2.462384999999997,41450.77720209666
2.462481999999997,41237.11340205601
2.462577999999997,41237.11340205601
2.462675999999997,41237.11340205601
2.575328999999997,30188.679245312902
2.5754709999999967,38647.342995156345
2.5755939999999966,47337.27810648486
2.575677999999997,47619.047619062934
2.5757629999999967,47337.27810648486
2.5758459999999967,41237.11340205601
2.575931999999997,41025.64102560584
2.5760399999999968,45977.011494162885
2.576126999999997,45454.545454499996
2.576213999999997,45197.74011302711
2.576302999999997,44943.820224716204
2.576390999999997,44444.44444437258
2.576480999999997,44198.89502762755
2.5765709999999973,44198.89502762755
2.576661999999997,43956.043956013404
2.5767519999999973,43243.24324321946
2.5768439999999972,43478.2608695742
2.5769369999999974,43478.2608695742
2.577027999999997,43010.75268811619
2.5771209999999973,43010.75268811619
2.5772139999999975,42553.19148934427
2.5773069999999976,42105.26315791414
2.5774019999999975,42328.04232809324
2.5774969999999975,42553.19148944479
2.5775909999999973,42105.26315791414
2.577684999999997,41884.81675391525
2.577780999999997,41884.81675391525
2.577875999999997,41666.666666624995
2.5779719999999973,41237.11340205601
2.5780679999999974,41025.64102569927
2.5781659999999973,41237.11340215041
2.578262999999997,41025.64102569927
2.578359999999997,41025.64102569927
2.578457999999997,41025.64102569927
2.5785549999999966,40816.326530640785
2.5786529999999965,40609.137055837
2.5787509999999965,40609.137055837
2.5788499999999965,40404.04040401132
2.5789479999999965,40404.04040401132
2.5790479999999967,40404.04040401132
2.5791459999999966,39603.96039598911
2.579245999999997,32000.000000017735
2.579347999999997,29090.909090929912
2.5794959999999967,35242.290748867745
2.5796229999999967,39999.999999915584
2.579722999999997,35555.55555549807
2.579822999999997,35242.290748867745
2.5799479999999972,39408.86699508297
2.5800499999999973,40000.0000000044
2.580150999999997,39800.9950248523
2.5802499999999973,39603.96039598911
2.5803519999999973,39603.96039598911
2.5804519999999975,39603.96039598911
2.5805539999999976,39603.96039598911
2.580653999999998,39024.39024385813
2.580755999999998,39408.86699499676
2.580858999999998,35087.719298193435
2.5809589999999982,34632.03463198751
2.5810869999999984,25974.025974028085
2.670028999999998,21563.34231806516
2.670316999999998,38095.238095230205
2.670399999999998,37735.84905662532
2.670526999999998,46242.774566539025
2.670611999999998,46511.62790696025
2.670699999999998,46511.62790696025
2.670783999999998,45454.54545461469
2.670871999999998,45197.74011302711
2.670959999999998,44692.73743012983
2.671048999999998,44692.73743012983
2.671138999999998,44444.44444448224
2.671227999999998,44198.89502762755
2.671318999999998,43956.043956013404
2.671408999999998,43243.24324321946
2.671500999999998,43243.24324321946
2.671593999999998,43243.24324321946
2.671685999999998,42780.74866311597
2.671778999999998,42553.19148944479
2.671872999999998,42553.19148944479
2.6719669999999978,42328.04232809324
2.6720609999999976,41884.81675391525
2.6721559999999975,41884.81675391525
2.6722519999999976,41666.66666672137
2.6723469999999976,41450.77720209666
2.6724439999999974,41666.666666624995
2.6725399999999975,41450.77720209666
2.6726359999999976,41237.11340215041
2.6727329999999974,41025.64102569927
2.672829999999997,40609.137055837
2.672927999999997,40609.137055837
2.673026999999997,40816.326530640785
2.673124999999997,40609.137055837
2.673222999999997,40609.137055837
2.673321999999997,40609.137055837
2.673419999999997,40609.137055837
2.673518999999997,40404.04040401132
2.673616999999997,39800.9950248523
2.6737169999999972,39800.9950248523
2.673817999999997,39999.999999915584
2.6739179999999974,39999.999999915584
2.6740179999999976,35087.719298193435
2.6741179999999978,35087.719298193435
2.674245999999998,31496.062992073836
2.674345999999998,23952.095808379185
2.6744999999999983,26229.508196721337
2.674679999999998,35555.55555549807
2.6748049999999983,39215.68627449193
2.6749049999999985,39408.86699508297
2.6750089999999984,39603.96039598911
2.6751079999999985,39024.39024385813
2.6752109999999987,39024.39024385813
2.6753129999999987,39024.39024385813
2.675415999999999,39215.68627449193
2.675517999999999,38834.95145632417
2.675619999999999,38647.342995156345
2.675723999999999,38834.951456240444
2.675826999999999,23809.5238095
2.8701569999999994,55172.41379316444
2.8702289999999993,53691.27516780155
2.8703019999999992,52980.13245040474
2.870377999999999,51612.90322583802
2.870452999999999,13179.571663920397
2.870532999999999,12598.425196851562
2.871059999999999,40816.326530640785
2.871167999999999,44692.73743024071
2.871255999999999,44198.89502762755
2.8713469999999988,43956.043956013404
2.871436999999999,43010.75268821888
2.871528999999999,42328.04232809324
2.8716229999999987,41884.81675391525
2.8717179999999987,41666.666666624995
2.8718139999999988,41450.77720209666
2.871909999999999,41025.64102569927
2.8720069999999986,41025.64102569927
2.8721049999999986,40816.326530640785
2.8722019999999984,40201.0050250686
2.8723009999999984,39800.9950248523
2.8724009999999986,39603.96039607618
2.8725019999999986,39408.86699508297
2.8726029999999985,39024.39024385813
2.8727049999999985,38834.951456240444
2.8728079999999987,25559.105431291144
2.912150999999999,40404.04040410194
2.9122769999999987,54794.52054795291
2.9123489999999985,53333.333333299735
2.9124229999999987,51948.05194813107
2.9124989999999986,27397.260273976455
2.9125769999999984,26755.85284280496
2.9127909999999986,41025.64102569927
2.9128759999999985,40201.005025158316
2.9129859999999983,44444.44444448224
2.9130749999999983,43478.2608695742
2.913165999999998,42780.74866311597
2.9132589999999983,41450.77720209666
2.913352999999998,40609.137055837
2.913451999999998,40404.04040401132
2.913549999999998,39999.999999915584
2.9136499999999983,39408.86699499676
2.9137499999999985,38834.951456240444
2.9138529999999987,13536.379018612333
2.949764999999999,54794.52054795291
2.949835999999999,52980.13245040474
2.949910999999999,51612.90322583802
2.949986999999999,27118.64406780266
2.9500659999999987,26490.066225163417
2.9502819999999987,45454.545454499996
2.9503679999999988,44198.89502762755
2.950457999999999,43243.24324332326
2.9505489999999988,42105.26315791414
2.9506429999999986,41025.64102560584
2.9507389999999987,40404.04040401132
2.9508379999999987,39800.9950248523
2.950936999999999,39024.39024385813
2.951038999999999,39024.39024385813
2.951141999999999,32921.81069955931
2.951243999999999,27777.777777749998
2.977477999999999,56338.02816906786
2.977547999999999,54794.52054795291
2.977619999999999,52631.57894739267
2.977693999999999,44692.73743024071
2.977771999999999,28776.978417289123
2.977872999999999,30075.18796993867
2.9780499999999988,44692.73743012983
2.9781389999999988,43715.84699447191
2.978228999999999,41884.81675391525
2.978321999999999,40404.04040401132
2.978419999999999,40201.0050250686
2.978519999999999,39800.9950248523
2.9786189999999992,34482.758620688175
2.9787209999999993,20725.38860104833
2.988829999999999,53691.27516780155
2.988901999999999,50955.414012678884
2.988978999999999,19370.460048426306
2.9890589999999992,18779.342723003043
2.989391999999999,41450.77720200128
2.9894849999999993,39800.9950248523
2.9895849999999995,39215.68627449193
2.9979579999999997,55172.41379299547
2.998029,51948.05194798127
2.998103,31249.999999968746
2.998183,30188.679245262312
2.998359,45197.74011302711
2.9984480000000002,44444.44444448224
2.998536,41884.81675391525
2.998628,39800.9950248523
2.998727,38834.95145632417
3.006475,23668.63905324243
3.006551,20253.16455695458
3.006813,35242.290748936684
3.006946,36866.35944705733
3.0144859999999998,52631.57894739267
3.01456,28880.866426030454
3.0146379999999997,27777.77777779283
3.0148369999999995,44444.44444448224
3.0149259999999996,42780.74866311597
3.0150169999999994,35555.555555568244
3.0151129999999995,34782.60869569294
3.0223009999999992,45454.545454499996
3.0223749999999994,24691.358024692046
3.0224769999999994,25477.707006375476
3.0298909999999992,17130.620985010883
3.0299649999999994,16494.845360829957
3.030357999999999,19138.75598087006
3.037139999999999,20725.38860104833
3.037217999999999,20000.0000000022
3.037525999999999,42328.04232809324
3.037617999999999,35555.555555568244
3.044483999999999,18735.362997650303
3.044559999999999,17937.21973093493
3.051460999999999,15122.873345942027
3.0518949999999987,21505.37634408377
3.0657439999999987,41450.77720209666
3.3243059999999987,39408.86699508297
3.3244189999999985,43956.043956013404
3.3245089999999986,43715.846994577994
3.3246009999999986,43715.846994577994
3.3246919999999984,43243.24324321946
3.3247839999999984,43010.75268811619
3.3248769999999985,42780.74866311597
3.3249699999999986,42780.74866311597
3.3250639999999985,42553.19148934427
3.3251569999999986,41884.81675391525
3.3252519999999985,42553.19148934427
3.456248999999999,30534.351145065855
3.4564349999999986,52631.57894739267
3.4565109999999986,52287.58169932257
3.4565869999999985,51612.90322583802
3.4566639999999986,50632.91139244337
3.4567419999999984,50314.46540879863
3.4568219999999985,8088.9787664296855
3.4569009999999984,8024.072216647063
3.4578109999999986,45977.011494162885
3.457897999999999,45454.545454499996
3.457984999999999,44692.73743012983
3.458073999999999,44943.820224716204
3.458163999999999,44943.820224716204
3.458251999999999,44198.89502762755
3.458341999999999,44198.89502762755
3.458432999999999,43956.043956013404
3.458522999999999,43715.846994577994
3.458614999999999,43956.04395612066
3.458705999999999,43478.2608695742
3.458796999999999,42780.74866311597
3.458889999999999,43010.75268821888
3.4589839999999987,42780.74866311597
3.4590759999999987,42553.19148934427
3.4591709999999987,42553.19148934427
