Time,Frequency
9.4e-05,41666.666666666664
0.00018899999999999999,41025.64102564102
0.000286,40404.04040404041
0.000384,39800.99502487562
0.000484,39024.39024390243
0.000585,38461.53846153845
0.000689,38095.23809523809
0.0007930000000000001,37735.84905660378
0.0008990000000000001,37383.17757009346
0.001005,36866.359447004616
0.001113,36697.24770642204
0.001222,36363.636363636375
0.001331,35874.43946188343
0.001442,35714.28571428575
0.0015539999999999998,35398.2300884956
0.0016659999999999997,34934.49781659388
0.0017799999999999997,34632.03463203462
0.0018949999999999998,34334.763948497864
0.0020109999999999998,34042.553191489365
0.0021279999999999997,33755.27426160334
0.0022459999999999997,33472.80334728033
0.002365,33057.85123966942
0.002485,32786.8852459016
0.002607,32653.061224489797
0.002729,32388.66396761136
0.002852,32128.51405622489
0.002976,31999.99999999997
0.003101,31746.03174603174
0.003226,31372.549019607843
0.003353,31249.99999999998
0.003481,31128.40466926072
0.0036090000000000002,30888.030888030928
0.003738,30769.23076923079
0.003868,30534.35114503816
0.003998,30188.679245282965
0.00413,30188.679245282965
0.004263,30188.679245282965
0.0043950000000000005,29962.546816479316
0.004528000000000001,29739.776951672848
0.004662000000000001,29304.029304029325
0.004797000000000001,29304.029304029325
0.004935000000000001,29520.29520295208
0.005070000000000001,29304.029304029325
0.0052060000000000006,28880.866425992746
0.0053430000000000005,28673.835125447968
0.005483000000000001,28776.97841726614
0.005622000000000001,28673.835125447968
0.005761000000000001,28673.835125447968
0.005901000000000002,28571.428571428583
0.006040000000000002,27972.02797202799
0.006181000000000002,27681.66089965396
0.006326000000000002,27586.206896551692
0.006470000000000002,27777.77777777777
0.006616000000000002,27972.02797202799
0.006758000000000002,28070.175438596525
0.006902000000000002,27972.02797202799
0.0070430000000000015,27586.206896551692
0.007188000000000002,27210.884353741498
0.007333000000000002,27118.6440677966
0.007482000000000002,27397.260273972548
0.007628000000000002,27586.206896551776
0.007774000000000002,27586.206896551776
0.007918000000000001,27210.884353741418
0.008064000000000002,26936.0269360269
0.008212000000000002,26936.0269360269
0.008361000000000002,27118.6440677966
0.008509000000000003,26845.637583892647
0.008656000000000002,26666.666666666675
0.008807000000000002,26755.852842809305
0.008956000000000002,26578.073089700916
0.009106000000000003,26402.64026402645
0.009257000000000003,26490.066225165545
0.009409000000000002,26755.852842809305
0.009559000000000003,26578.07308970107
0.009708000000000003,26402.64026402645
0.009860000000000002,26402.64026402645
0.010011000000000003,26229.508196721337
0.010163000000000002,26143.79084967314
0.010316000000000002,26143.79084967314
0.010469000000000003,25974.02597402589
0.010622000000000003,25889.96763754043
0.010777000000000004,29411.76470588239
0.010931000000000003,33472.80334728039
0.011049000000000003,29520.295202951984
0.011170000000000003,25889.96763754043
0.011320000000000004,25723.47266881039
0.011479000000000003,25806.451612903267
0.011631000000000002,25559.10543130984
0.011789000000000003,25723.472668810246
0.011944000000000003,25559.10543130998
0.012100000000000003,25396.825396825454
0.012257000000000002,25157.23270440247
0.012415000000000002,25157.23270440247
0.012575000000000003,25157.23270440247
0.012733000000000003,24999.999999999935
0.012893000000000003,25236.593059936942
0.013053000000000004,25477.707006369565
0.013210000000000003,25157.232704402606
0.013367000000000002,25000.00000000007
0.013528000000000002,24767.801857585244
0.013687000000000001,24242.42424242434
0.013851,24464.831804281406
0.014017,17021.276595744683
0.014178,12924.071082390958
0.014487,10973.936899862845
0.014797,10088.27238335437
0.015215999999999999,10498.687664041987
0.015589999999999998,10884.35374149658
0.015978,11204.481792717097
0.016692,9756.097560975635
0.017342999999999997,9122.00684150514
0.018607999999999996,9592.326139088713
0.019441999999999997,8221.993833504612
0.020234,18099.547511312157
0.020415,14598.540145985406
0.020676,14109.347442680824
0.020963,15533.98058252433
0.021242999999999998,14159.292035398243
0.021477999999999997,16293.279022403198
0.021807999999999998,18912.529550827432
0.021969,18735.36299765822
0.022230999999999997,20151.133501259545
0.022395999999999996,14492.753623188395
0.022627999999999995,17817.37193763914
0.022947999999999996,30534.351145037956
0.023076999999999997,19417.475728155216
0.023209999999999998,16701.461377870553
0.023489,20100.502512562864
0.023688999999999998,24169.184290030105
0.023887,20151.13350125937
0.02402,19999.99999999995
0.024284,26229.508196721337
0.02442,23460.410557184918
0.024589,23809.523809523846
0.024761,23809.523809523846
0.024925,23880.59701492548
0.025096999999999998,16771.48846960174
0.025259999999999998,12658.227848101324
0.025573999999999996,9324.00932400935
0.025891999999999995,8130.081300813018
0.026431999999999994,8547.008547008552
0.026875999999999994,12799.999999999989
0.027367999999999993,22160.664819944584
0.027500999999999994,19704.433497536942
0.027728999999999993,28880.866425992834
0.027906999999999994,13605.442176870789
0.028005999999999993,12519.56181533645
0.028494999999999993,20356.23409669206
0.028644999999999993,16427.104722792563
0.028887999999999994,11661.807580174884
0.029573999999999996,10322.580645161319
0.030152999999999996,8583.690987124475
0.034635000000000006,10471.204188481664
0.035065000000000006,8724.100327153752
0.03539900000000001,10484.92791612058
0.03771800000000001,12598.425196850321
0.03944700000000001,10943.912448700477
0.06423200000000001,9070.29478458042
0.11226900000000004,21108.179419525597
0.11236100000000003,14598.54014598559
0.13345700000000002,9090.909090909174
0.24199500000000002,38095.238095240275
0.242123,47619.047619047196
0.242205,46511.62790697526
0.242291,45977.011494250895
0.242377,45197.740112991676
0.242465,44444.44444444111
0.24255400000000002,43715.84699453158
0.24264500000000003,42553.19148935684
0.24273700000000004,41450.77720206685
0.24283300000000005,41025.64102564087
0.24293000000000006,40404.04040404531
0.24302800000000005,39800.99502487978
0.24312800000000004,39215.68627451327
0.24322900000000003,38461.53846154106
0.24333200000000002,38095.238095240275
0.24343700000000001,37735.849056605555
0.243542,37383.17757009486
0.243649,37209.30232558261
0.243756,36866.35944700546
0.243864,36697.2477064227
0.243973,36363.636363636695
0.244082,35874.43946188325
0.244193,35714.2857142854
0.244305,35398.23008849495
0.244417,34934.49781659282
0.244531,34632.03463203328
0.244646,34334.763948496235
0.244762,34042.55319148748
0.244879,33755.27426160124
0.24499700000000002,33333.33333333084
0.24511600000000003,32786.88524589869
0.24523700000000004,32520.325203248864
0.24536000000000005,32520.325203248864
0.24548300000000006,32388.66396760806
0.24560600000000007,32128.514056225
0.2457300000000001,31872.509960162733
0.24585500000000007,31620.55335968686
0.24598100000000006,31250.00000000263
0.24610800000000005,30888.0308880331
0.24623700000000004,30651.340996170526
0.24636700000000003,30418.250950572023
0.24649800000000002,30303.030303031857
0.24663000000000002,30303.030303031857
0.246762,30303.030303031857
0.246894,29962.546816480582
0.247026,29739.776951673804
0.247161,29739.776951673804
0.247295,29629.629629630457
0.24742999999999998,29520.29520295274
0.24756499999999998,29304.02930402979
0.24770099999999998,28776.97841726614
0.24783799999999997,28673.835125447877
0.24797899999999998,29197.08029197118
0.24811699999999998,29197.08029197118
0.24825299999999997,21798.365122615436
0.24839099999999997,21857.92349726745
0.24861999999999998,28880.866425992834
0.24875699999999998,28368.794326240684
0.24889699999999998,27972.027972027143
0.24903899999999998,27681.66089965288
0.249183,27777.77777777677
0.249328,27972.027972027143
0.249471,27874.564459929396
0.249614,27777.77777777677
0.249758,27491.408934706633
0.249902,27210.884353739973
0.250049,27210.884353739973
0.25019600000000003,27303.75426621275
0.25034300000000004,27118.644067797555
0.250489,26936.026936027687
0.250638,27027.02702703041
0.250786,27118.644067797555
0.250934,27027.027027025342
0.251081,26755.852842809927
0.25123,26755.852842809927
0.25138,26666.66666666467
0.251529,26578.073089701375
0.25168,26578.073089701375
0.25183,26402.640264026602
0.251981,26315.789473686724
0.252133,26315.789473686724
0.252285,26315.789473686724
0.25243699999999997,26315.789473686724
0.25258899999999995,26229.508196721337
0.25274099999999994,26143.79084967077
0.25289399999999995,26058.63192182396
0.25304699999999997,25974.025974028085
0.25320099999999995,25974.025974028085
0.25335499999999994,25889.967637540143
0.25350899999999993,25806.451612900524
0.25366399999999995,25723.472668809816
0.25381899999999996,25641.02564102737
0.25397499999999995,25641.02564102737
0.25413099999999994,25559.105431309275
0.25428699999999993,25477.70700636647
0.25444399999999995,25396.825396824614
0.25460099999999997,25316.455696203895
0.25475899999999996,25316.455696203895
0.25491699999999995,25396.825396824614
0.25507499999999994,25316.45569619945
0.25523199999999996,25157.232704399314
0.255391,25078.369905955034
0.25555,25078.369905955034
0.25571,24999.999999996682
0.255869,24922.118380061085
0.25603000000000004,24922.118380061085
0.25619000000000003,24999.999999996682
0.25635100000000005,25157.232704399314
0.25651000000000007,25078.369905955034
0.2566690000000001,24922.118380061085
0.2568290000000001,24999.999999996682
0.2569900000000001,24767.80185758378
0.2571490000000001,23738.872403562505
0.2573130000000001,21164.021164021753
0.2574860000000001,13937.282229964698
0.2576910000000001,11544.011544011557
0.2580600000000001,10139.416983523652
0.2583840000000001,11283.497884343906
0.2588490000000001,15594.541910330132
0.25909300000000013,17204.301075269068
0.25936200000000015,14184.39716312174
0.2595580000000001,10165.184243964652
0.2599260000000001,13071.89542483657
0.2603450000000001,14732.965009207677
0.2605380000000001,16666.66666666542
0.2608880000000001,30303.030303025484
0.26101800000000014,17543.859649122347
0.26115200000000016,13355.592654423679
0.26147400000000015,8385.744234800748
0.26242800000000016,11142.061281337103
0.2628380000000002,10416.66666666679
0.26314600000000016,11594.202898550322
0.2636060000000002,10680.907877169564
0.2638360000000002,9111.617312072998
0.2643550000000002,8869.17960088678
0.2664020000000002,8097.1659919024705
0.2671960000000002,22662.889518410535
0.26739000000000024,13769.363166953572
0.2687270000000002,14209.591474245615
0.2691510000000002,11204.481792717206
0.2692900000000002,11816.83899556898
0.2698650000000002,14869.888475836902
0.27179600000000015,10282.776349614383
0.27231200000000017,12012.012012012014
0.27257400000000015,12558.869701726871
0.27297800000000016,13355.592654424918
0.27321100000000015,12345.679012346023
0.2746270000000001,10256.410256410218
0.2752480000000001,16194.33198380585
0.2785020000000001,14897.57914338893
0.2787280000000001,8333.33333333319
0.2790390000000001,8483.563096500286
0.2796880000000001,11173.184357541986
0.2799820000000001,8290.155440414563
0.2818200000000001,8611.410118406768
0.2942080000000001,9467.455621301948
0.29636100000000004,9756.097560975759
0.296899,10512.483574244254
0.29718100000000003,8743.169398907112
0.30221200000000004,9122.006841504957
0.32419600000000004,14336.917562723938
0.32445,11904.761904761799
0.380784,38277.51196172996
0.38087,38095.238095240275
0.38099299999999997,31746.03174602797
0.38108,15686.274509803601
0.381245,18099.5475113123
0.38159,45454.545454543004
0.381687,49382.71604938409
0.381766,48192.7710843375
0.381849,47904.19161677429
0.381932,47058.82352942617
0.38201599999999997,46511.627906990274
0.38210199999999994,45714.28571429075
0.3821879999999999,44692.73743017141
0.3822769999999999,43715.84699453821
0.3823669999999999,42780.748663103266
0.3824599999999999,42105.263157901834
0.3825539999999999,41237.113402067815
0.3826499999999999,40816.32653061766
0.38274799999999987,40201.00502512467
0.38284599999999985,39603.96039603265
0.38294699999999987,39215.6862745026
0.3830479999999999,38647.342995166706
0.3831509999999999,38277.51196171979
0.3832549999999999,37914.691943124955
0.3833599999999999,37558.685446006086
0.3834659999999999,37037.03703702855
0.38357299999999994,36529.680365292676
0.38368199999999997,36036.03603603604
0.38379199999999997,35874.439461878785
0.38390399999999997,35555.5555555507
0.384015,35242.29074890222
0.384129,34934.49781659705
0.384242,34632.034632037445
0.384358,34482.758620696426
0.38447299999999995,34042.553191491505
0.38458999999999993,33755.2742616052
0.38470799999999994,33613.445378156845
0.3848269999999999,33472.80334728184
0.3849459999999999,33195.020746889175
0.3850659999999999,32921.8106995894
0.3851869999999999,32921.8106995894
0.3853089999999999,32653.061224490433
0.3854299999999999,32258.064516125654
0.3855539999999999,31999.99999999642
0.3856779999999999,31746.03174602797
0.3858039999999999,31620.553359683392
0.38592999999999994,31372.549019607202
0.38605699999999993,31128.404669259824
0.38618499999999994,30888.03088802979
0.38631399999999994,30769.230769226273
0.38644399999999995,30534.35114503351
0.386574,30188.679245281284
0.386706,30188.679245281284
0.386839,30303.030303025484
0.386971,29962.54681647747
0.38710300000000003,29411.76470588295
0.387238,29411.76470588295
0.387375,29629.629629630457
0.38751,29520.295202949717
0.387645,28880.86642598994
0.38778100000000004,18867.924528302778
0.38792200000000004,15717.092337918051
0.388205,21978.021978020108
0.388431,28880.86642598994
0.38856900000000005,28776.97841726614
0.38870800000000005,28673.83512545073
0.38884700000000005,28169.014084511906
0.388987,27491.408934709252
0.389131,27586.20689655054
0.389278,27874.56445993209
0.389421,27681.66089965554
0.389565,27491.408934709252
0.38971,27397.260273976455
0.389856,27303.75426621275
0.39000199999999996,27210.884353739973
0.39014899999999997,27027.027027025342
0.390296,26845.637583890773
0.390445,27027.027027025342
0.390594,27027.027027025342
0.390741,26936.026936027687
0.39089,26755.852842809927
0.391038,26666.66666666467
0.391189,26490.066225163417
0.391338,26402.640264026602
0.39149100000000003,26402.640264026602
0.391641,26229.508196721337
0.39179400000000003,26315.789473686724
0.391946,26315.789473686724
0.392098,26229.508196721337
0.39225,26058.63192182396
0.392403,26058.63192182396
0.392557,25974.025974023403
0.39271,25723.472668809816
0.392865,25641.02564102737
0.393021,25641.02564102737
0.393177,25559.105431309275
0.393333,25316.45569619945
0.39349,25157.232704399314
0.393649,25157.232704399314
0.39380800000000005,25157.232704399314
0.39396700000000007,25078.369905955034
0.3941260000000001,25236.593059935974
0.3942860000000001,24844.72049689098
0.3944430000000001,24390.24390243527
0.3946080000000001,19417.475728154233
0.39477100000000015,14466.54611211506
0.39502000000000015,15414.258188823262
0.4025540000000002,8438.818565400805
0.40317100000000017,8676.789587852176
0.41295700000000024,9876.543209876141
0.41709400000000024,13793.10344827659
0.41735800000000023,12598.42519685046
0.5251520000000002,17316.017316018722
0.5254300000000002,8273.009307135982
0.5458140000000004,11976.047904191582
0.5460200000000004,10204.081632652971
0.5464820000000004,9467.455621300704
0.5691240000000004,8465.608465608702
0.5777450000000004,11299.43502824969
0.6104940000000004,45454.545454557345
0.6105830000000004,45977.01149428023
0.6106700000000004,45454.545454557345
0.6107570000000003,44943.820224716204
0.6108460000000003,44444.44444445482
0.6109350000000003,43715.84699455147
0.6110260000000003,43010.75268816754
0.6111180000000003,42328.042328043506
0.6112120000000003,41884.816753939594
0.6113070000000003,41237.11340205601
0.6114030000000003,40404.04040403398
0.6115010000000003,39800.99502487429
0.6116010000000003,39215.68627451327
0.6117020000000003,38647.34299517707
0.6118050000000003,38095.238095230205
0.6119090000000003,37735.849056585794
0.6120150000000003,37558.685446006086
0.6121210000000004,37037.03703703807
0.6122280000000003,36529.68036528342
0.6123370000000004,36199.09502262006
0.6124470000000004,35874.43946188772
0.6125580000000004,35398.230088503646
0.6126700000000004,35087.71929826178
0.6127840000000003,34934.49781660552
0.6128980000000003,34782.608695659364
0.6130130000000003,34482.758620688175
0.6131280000000002,34042.553191491505
0.6132450000000003,33755.2742616131
0.6133630000000002,33472.80334728184
0.6134820000000002,33195.02074688153
0.6136020000000002,32921.8106995894
0.6137230000000002,32653.061224497833
0.6138450000000002,32388.6639676117
0.6139680000000002,32128.51405621784
0.6140920000000002,31746.03174602797
0.6142170000000002,31496.062992128904
0.6143440000000002,31372.549019607202
0.6144710000000002,31249.999999995853
0.6145990000000002,30888.03088802979
0.6147270000000002,30534.35114503998
0.6148580000000002,30534.35114503998
0.6149890000000002,30303.030303025484
0.6151200000000002,30075.187969913564
0.6152530000000003,30188.67924527496
0.6153860000000003,30188.67924527496
0.6155180000000003,29090.90909090642
0.6156510000000004,28673.835125445024
0.6157930000000004,29629.629629618274
0.6159300000000004,30303.030303025484
0.6160630000000005,31007.751937986843
0.6161940000000005,30534.35114503998
0.6163210000000005,29090.90909090642
0.6164560000000004,28776.97841726614
0.6165960000000005,28880.86642599573
0.6167340000000004,28368.794326240684
0.6168730000000004,28169.014084511906
0.6170160000000005,28368.794326251853
0.6171570000000004,28368.794326251853
0.6172980000000003,28368.794326251853
0.6174390000000003,28169.014084511906
0.6175800000000002,27972.027972027143
0.6177230000000002,27874.5644599267
0.6178660000000002,27681.66089965554
0.6180100000000003,27681.66089965554
0.6181550000000002,27681.66089965554
0.6182990000000003,27491.408934714498
0.6184440000000002,27491.408934714498
0.6185900000000002,27491.408934714498
0.6187350000000001,27303.75426621275
0.6188810000000001,27027.02702703041
0.6190280000000001,26755.852842814893
0.6191770000000001,26845.637583890773
0.6193270000000001,26936.026936027687
0.6194750000000001,26845.637583900774
0.6196240000000001,26666.666666669604
0.619773,26666.666666669604
0.619924,26666.666666669604
0.620073,26578.073089701375
0.620224,26490.066225163417
0.620374,26402.640264021764
0.620526,26315.789473686724
0.620677,26229.508196721337
0.62083,26229.508196721337
0.620982,26143.790849680256
0.621135,26058.63192182867
0.621288,26058.63192182867
0.6214419999999999,26058.63192182867
0.6215949999999999,25889.967637540143
0.6217489999999999,25889.967637540143
0.6219039999999999,25889.967637540143
0.6220579999999999,25806.451612900524
0.6222129999999999,25723.472668805225
0.6223679999999999,25559.105431309275
0.622524,25559.105431309275
0.6226809999999999,25559.105431309275
0.622837,25477.707006375476
0.6229939999999999,25396.82539682909
0.6231509999999999,25316.455696203895
0.6233089999999999,25236.593059935974
0.6234669999999999,25157.232704399314
0.6236259999999999,25157.232704399314
0.6237849999999999,25078.36990595067
0.6239439999999999,24999.999999992346
0.624104,25078.36990595067
0.624264,25157.232704399314
0.6244230000000001,25157.232704399314
0.6245820000000001,25157.232704399314
0.6247410000000001,25078.36990595067
0.6249000000000001,24922.118380061085
0.6250600000000002,24390.2439024394
0.6252210000000001,23668.639053250205
0.6253880000000002,12499.999999998341
0.6268400000000003,23323.615160351063
0.6270450000000003,18648.018648018096
0.6271830000000003,8230.452674896409
0.6299660000000004,10767.16016150669
0.6304030000000004,12422.36024844763
0.6307090000000004,12882.44766505672
0.6310470000000004,16460.9053497947
0.6313300000000004,16032.064128259206
0.6315330000000003,11173.184357542852
0.6318290000000003,14652.014652016385
0.6322490000000003,21390.374331551633
0.6323750000000002,13513.513513512671
0.6326230000000003,15748.03149606101
